0.48536209553158716
0.48258859784283503
0.48258859784283503
0.48258859784283503
0.4044684129429892
0.4044684129429892
0.4044684129429892
-0.37985362095531583
-0.37985362095531583
-0.6422958397534669
-0.6422958397534669
-0.6422958397534669
-0.4690677966101695
-0.4690677966101695
-0.5743451463790448
-0.5743451463790448
-0.6837827426810478
-0.6837827426810478
-0.6837827426810478
-0.5512326656394453
-0.6232280431432973
-0.6232280431432973
-0.6232280431432973
-0.633281972265023
-0.633281972265023
-0.633281972265023
-0.5369029275808936
-0.6143297380585516
-0.6143297380585516
-0.6143297380585516
-0.43694144838212634
-0.5728428351309708
-0.5728428351309708
-0.5455701078582436
-0.5455701078582436
-0.39094761171032344
-0.39094761171032344
-0.5139060092449923
-0.5139060092449923
-0.3740755007704162
-0.3740755007704162
-0.3823959938366719
-0.3823959938366719
-0.29734206471494606
-0.29734206471494606
-0.2518104776579353
-0.2518104776579353
-0.26151771956856695
-0.26151771956856695
-0.112557781201849
-0.112557781201849
-0.2490369799691834
-0.2490369799691834
-0.1341679506933744
-0.1341679506933744
-0.13081664098613244
-0.23782742681047764
-0.23782742681047764
-0.23782742681047764
-0.2305469953775039
-0.2305469953775039
-0.42122496147919875
-0.42122496147919875
-0.42122496147919875
-0.4883667180277351
-0.4883667180277351
-0.604391371340524
-0.604391371340524
-0.604391371340524
-0.671879815100154
-0.671879815100154
-0.671879815100154
-0.6708397534668721
-0.6708397534668721
-0.7978428351309708
-0.7978428351309708
-0.7978428351309708
-0.7978428351309708
-0.712326656394453
-0.712326656394453
-0.7689522342064715
-0.7689522342064715
-0.7531201848998459
-0.7531201848998459
-0.7305855161787365
-0.7305855161787365
-0.7305855161787365
-0.8038520801232665
-0.8038520801232665
-0.8038520801232665
-0.6832049306625578
-0.6832049306625578
-0.7605161787365178
-0.7605161787365178
-0.673382126348228
-0.673382126348228
-0.7080508474576273
-0.7080508474576273
-0.7080508474576273
-0.7399460708782744
-0.7399460708782744
-0.6804314329738058
-0.6804314329738058
-0.6804314329738058
-0.7235362095531588
-0.7235362095531588
-0.7235362095531588
-0.635593220338983
-0.635593220338983
-0.712095531587057
-0.712095531587057
-0.6940677966101696
-0.6940677966101696
-0.6940677966101696
-0.59942218798151
-0.59942218798151
-0.59942218798151
-0.7437596302003082
-0.7437596302003082
-0.7437596302003082
-0.6491140215716487
-0.6491140215716487
-0.6759244992295841
-0.6759244992295841
-0.6575500770416025
-0.6575500770416025
-0.6575500770416025
-0.6662172573189522
-0.6662172573189522
-0.6662172573189522
-0.7307010785824345
-0.7307010785824345
-0.7307010785824345
-0.6220724191063174
-0.6220724191063174
-0.6931432973805854
-0.6931432973805854
-0.6546610169491525
-0.6546610169491525
-0.6507318952234207
-0.6507318952234207
-0.6507318952234207
-0.7320878274268106
-0.7320878274268106
-0.7320878274268106
-0.5979198767334362
-0.5979198767334362
-0.6952234206471495
-0.6952234206471495
-0.6952234206471495
-0.6050847457627118
-0.6050847457627118
-0.6050847457627118
-0.6455315870570109
-0.6455315870570109
-0.6050847457627118
-0.6050847457627118
-0.47161016949152534
-0.47161016949152534
-0.47161016949152534
-0.47161016949152534
-0.6201078582434514
-0.6201078582434514
-0.6201078582434514
-0.5030431432973805
-0.5030431432973805
-0.5203775038520801
-0.5203775038520801
-0.5504237288135594
-0.5504237288135594
-0.5504237288135594
-0.5139060092449923
-0.5139060092449923
-0.5139060092449923
-0.6167565485362094
-0.6167565485362094
-0.6167565485362094
-0.5308936825885978
-0.5308936825885978
-0.6330508474576271
-0.6330508474576271
-0.6330508474576271
-0.6598613251155625
-0.6598613251155625
-0.5766563944530045
-0.5766563944530045
-0.5766563944530045
-0.5766563944530045
-0.6820493066255777
-0.6820493066255777
-0.5848613251155623
-0.5848613251155623
-0.5848613251155623
-0.637788906009245
-0.637788906009245
-0.637788906009245
-0.6429892141756548
-0.6429892141756548
-0.7013482280431433
-0.7013482280431433
-0.5059322033898306
-0.5059322033898306
-0.5059322033898306
0.30797380585516176
0.30797380585516176
0.30797380585516176
0.30797380585516176
0.4799306625577813
0.4799306625577813
0.4799306625577813
0.48293528505392924
0.48293528505392924
0.48293528505392924
0.48293528505392924
0.4567026194144841
0.4567026194144841
-0.2419876733436055
-0.2419876733436055
-0.2419876733436055
-0.7520801232665639
-0.7520801232665639
-0.7520801232665639
-0.3993836671802773
-0.3993836671802773
-0.6085516178736519
-0.6085516178736519
-0.6618258859784283
-0.6618258859784283
-0.5461479198767335
-0.5461479198767335
-0.5461479198767335
-0.6804314329738058
-0.6804314329738058
-0.5541217257318953
-0.5541217257318953
-0.5541217257318953
-0.6097072419106317
-0.6097072419106317
-0.6097072419106317
-0.6097072419106317
-0.5534283513097072
-0.5534283513097072
-0.49749614791987673
-0.49749614791987673
-0.5791987673343606
-0.5791987673343606
-0.4659476117103236
-0.4659476117103236
-0.4659476117103236
-0.4659476117103236
-0.5349383667180279
-0.5349383667180279
-0.5349383667180279
-0.4224961479198768
-0.4224961479198768
-0.3936055469953774
-0.3936055469953774
-0.4104776579352851
-0.4104776579352851
-0.2625577812018489
-0.2625577812018489
-0.2625577812018489
-0.3229969183359014
-0.3229969183359014
-0.19738058551617876
-0.19738058551617876
-0.19738058551617876
-0.17045454545454541
-0.17045454545454541
-0.17045454545454541
-0.19645608628659472
-0.19645608628659472
-0.054545454545454675
-0.054545454545454675
-0.262788906009245
-0.262788906009245
-0.1695300462249616
-0.1695300462249616
-0.1695300462249616
-0.1695300462249616
-0.26706471494607076
-0.26706471494607076
-0.26706471494607076
-0.3804314329738059
-0.3804314329738059
-0.4435285053929121
-0.4435285053929121
-0.6301617873651771
-0.6301617873651771
-0.5869414483821263
-0.5869414483821263
-0.5869414483821263
-0.7260785824345146
-0.7260785824345146
-0.7260785824345146
-0.7268875192604005
-0.7268875192604005
-0.7300077041602464
-0.7300077041602464
-0.7300077041602464
-0.8173728813559322
-0.8173728813559322
-0.7026194144838214
-0.7026194144838214
-0.8017719568567026
-0.8017719568567026
-0.7771571648690292
-0.7771571648690292
-0.7771571648690292
-0.7348613251155623
-0.7348613251155623
-0.7348613251155623
-0.7628274268104777
-0.7628274268104777
-0.671764252696456
-0.671764252696456
-0.7621340523882897
-0.7621340523882897
-0.6911787365177195
-0.6911787365177195
-0.6911787365177195
-0.6982280431432974
-0.6982280431432974
-0.6982280431432974
-0.6961479198767335
-0.6961479198767335
-0.6629815100154084
-0.6629815100154084
-0.7271186440677966
-0.7271186440677966
-0.6263482280431432
-0.6263482280431432
-0.6263482280431432
-0.7179892141756549
-0.7179892141756549
-0.6823959938366719
-0.6823959938366719
-0.6823959938366719
-0.6478428351309706
-0.6478428351309706
-0.7409861325115563
-0.7409861325115563
-0.6234591679506933
-0.6234591679506933
-0.7013482280431433
-0.7013482280431433
-0.7013482280431433
-0.6706086286594761
-0.6706086286594761
-0.6706086286594761
-0.6473805855161787
-0.6473805855161787
-0.6473805855161787
-0.7196070878274268
-0.7196070878274268
-0.6083204930662558
-0.6083204930662558
-0.7211093990755008
-0.7211093990755008
-0.6524653312788906
-0.6524653312788906
-0.6524653312788906
-0.6343220338983051
-0.6343220338983051
-0.6343220338983051
-0.7236517719568567
-0.7236517719568567
-0.6321263482280433
-0.6321263482280433
-0.6963790446841294
-0.6963790446841294
-0.6098228043143297
-0.6098228043143297
-0.6098228043143297
-0.6113251155624038
-0.6113251155624038
-0.5810477657935285
-0.5810477657935285
-0.5810477657935285
-0.5412942989214176
-0.5412942989214176
-0.5412942989214176
-0.5588597842835131
-0.5588597842835131
-0.5588597842835131
-0.4604006163328198
-0.6153697996918336
-0.6153697996918336
-0.6153697996918336
-0.5026964560862865
-0.5026964560862865
-0.5026964560862865
-0.5505392912172573
-0.5505392912172573
-0.6663328197226503
-0.6663328197226503
-0.6663328197226503
-0.525115562403698
-0.525115562403698
-0.6937211093990754
-0.6937211093990754
-0.5883281972265024
-0.5883281972265024
-0.5883281972265024
-0.6260015408320493
-0.6260015408320493
-0.6960323574730354
-0.6960323574730354
-0.5550462249614792
-0.5550462249614792
-0.5550462249614792
-0.6738443759630202
-0.6738443759630202
-0.6147919876733436
-0.6147919876733436
-0.669106317411402
-0.669106317411402
-0.669106317411402
-0.2136748844375962
-0.2136748844375962
-0.2136748844375962
0.4682588597842836
0.4682588597842836
0.4682588597842836
0.4682588597842836
0.4800462249614794
0.4800462249614794
0.48385978428351306
0.48385978428351306
0.48385978428351306
0.480624036979969
0.480624036979969
0.27723420647149477
0.27723420647149477
0.27723420647149477
-0.5626733436055471
-0.5626733436055471
-0.6067026194144838
-0.6067026194144838
-0.41845146379044684
-0.41845146379044684
-0.41845146379044684
-0.7191448382126349
-0.7191448382126349
-0.5756163328197226
-0.5756163328197226
-0.5682203389830508
-0.5682203389830508
-0.7654853620955315
-0.7654853620955315
-0.7654853620955315
-0.48732665639445294
-0.48732665639445294
-0.6652927580893684
-0.6652927580893684
-0.5753852080123267
-0.5753852080123267
-0.523959938366718
-0.523959938366718
-0.5741140215716487
-0.5741140215716487
-0.5741140215716487
-0.4317411402157165
-0.4317411402157165
-0.4317411402157165
-0.5139060092449923
-0.5139060092449923
-0.416602465331279
-0.416602465331279
-0.3911787365177197
-0.3911787365177197
-0.3911787365177197
-0.35697226502311263
-0.35697226502311263
-0.35697226502311263
-0.2703004622496148
-0.2703004622496148
-0.28671032357473036
-0.28671032357473036
-0.28671032357473036
-0.1935670261941449
-0.1935670261941449
-0.1935670261941449
-0.2223420647149461
-0.2223420647149461
-0.2223420647149461
-0.15335130970724187
-0.15335130970724187
-0.14433744221879818
-0.14433744221879818
-0.25007704160246536
-0.25007704160246536
-0.25007704160246536
-0.16964560862865952
-0.16964560862865952
-0.16964560862865952
-0.3368644067796609
-0.3368644067796609
-0.3368644067796609
-0.4167180277349769
-0.4167180277349769
-0.4726502311248073
-0.4726502311248073
-0.6420647149460709
-0.6420647149460709
-0.6420647149460709
-0.6722265023112481
-0.6722265023112481
-0.7623651771956856
-0.7623651771956856
-0.7317411402157165
-0.7317411402157165
-0.7429506933744221
-0.7905624036979969
-0.7905624036979969
-0.8032742681047766
-0.8032742681047766
-0.7187981510015408
-0.7187981510015408
-0.7751926040061634
-0.7751926040061634
-0.7751926040061634
-0.7608628659476117
-0.7608628659476117
-0.6865562403697998
-0.6865562403697998
-0.6865562403697998
-0.7786594761171033
-0.7786594761171033
-0.7786594761171033
-0.6543143297380585
-0.6543143297380585
-0.6543143297380585
-0.7242295839753466
-0.7242295839753466
-0.7242295839753466
-0.6969568567026194
-0.6969568567026194
-0.6518875192604007
-0.6518875192604007
-0.6518875192604007
-0.7059707241910631
-0.7059707241910631
-0.7059707241910631
-0.6239214175654854
-0.6239214175654854
-0.6239214175654854
-0.7384437596302004
-0.7384437596302004
-0.7384437596302004
-0.6458782742681048
-0.6458782742681048
-0.6458782742681048
-0.6391756548536209
-0.6391756548536209
-0.6391756548536209
-0.7155624036979968
-0.7155624036979968
-0.6040446841294298
-0.6040446841294298
-0.6040446841294298
-0.7370570107858243
-0.7370570107858243
-0.6458782742681048
-0.6458782742681048
-0.6458782742681048
-0.6458782742681048
-0.641255778120185
-0.641255778120185
-0.641255778120185
-0.6857473035439137
-0.6857473035439137
-0.59826656394453
-0.59826656394453
-0.59826656394453
-0.7392526964560863
-0.7392526964560863
-0.7392526964560863
-0.6220724191063174
-0.6220724191063174
-0.6220724191063174
-0.6420647149460709
-0.6420647149460709
-0.6807781201848999
-0.6807781201848999
-0.6807781201848999
-0.6807781201848999
-0.5879815100154082
-0.5879815100154082
-0.5879815100154082
-0.6472650231124807
-0.6472650231124807
-0.5559707241910632
-0.5559707241910632
-0.5559707241910632
-0.5924884437596303
-0.5924884437596303
-0.5924884437596303
-0.5328582434514637
-0.5328582434514637
-0.5328582434514637
-0.49645608628659477
-0.49645608628659477
-0.49645608628659477
-0.5856702619414484
-0.5856702619414484
-0.5856702619414484
-0.4664098613251155
-0.4664098613251155
-0.4664098613251155
-0.5663713405238829
-0.5663713405238829
-0.5473035439137133
-0.5473035439137133
-0.5473035439137133
-0.5726117103235747
-0.5726117103235747
-0.5726117103235747
-0.6347842835130971
-0.6347842835130971
-0.6347842835130971
-0.5880970724191064
-0.5880970724191064
-0.5880970724191064
-0.6524653312788906
-0.6524653312788906
-0.6524653312788906
-0.5882126348228043
-0.5882126348228043
-0.633281972265023
-0.633281972265023
-0.633281972265023
-0.6335130970724191
-0.6335130970724191
-0.6335130970724191
-0.5656779661016949
-0.5656779661016949
-0.5656779661016949
-0.5656779661016949
-0.7199537750385208
-0.7199537750385208
-0.5463790446841295
-0.5463790446841295
-0.5463790446841295
0.04472265023112465
0.04472265023112465
0.4779661016949155
0.4779661016949155
0.4779661016949155
0.4779661016949155
0.48177966101694913
0.48177966101694913
0.48177966101694913
0.4833975346687214
0.4833975346687214
0.47900616332819723
0.47900616332819723
0.47900616332819723
0.08158705701078595
0.08158705701078595
0.08158705701078595
-0.6300462249614793
-0.6300462249614793
-0.6300462249614793
-0.4607473035439136
-0.4607473035439136
-0.4607473035439136
-0.5764252696456087
-0.5764252696456087
-0.5764252696456087
-0.6002311248073959
-0.6002311248073959
-0.6002311248073959
-0.6249614791987673
-0.6249614791987673
-0.6249614791987673
-0.5612865947611709
-0.5612865947611709
-0.5887904468412943
-0.5887904468412943
-0.5887904468412943
-0.6318952234206472
-0.6318952234206472
-0.6318952234206472
-0.5092835130970725
-0.5092835130970725
-0.5092835130970725
-0.5092835130970725
-0.5907550077041602
-0.5907550077041602
-0.4726502311248073
-0.4726502311248073
-0.4726502311248073
-0.5010785824345146
-0.5010785824345146
-0.48177966101694913
-0.48177966101694913
-0.48177966101694913
-0.48177966101694913
-0.38979198767334355
-0.38979198767334355
-0.38979198767334355
-0.47392141756548534
-0.47392141756548534
-0.2989599383667181
-0.2989599383667181
-0.2989599383667181
-0.3283127889060091
-0.3283127889060091
-0.3283127889060091
-0.28243451463790437
-0.28243451463790437
-0.18640215716486908
-0.18640215716486908
-0.18640215716486908
-0.2516949152542374
-0.2516949152542374
-0.2516949152542374
-0.09152542372881367
-0.09152542372881367
-0.09152542372881367
-0.09152542372881367
-0.1963405238828968
-0.1963405238828968
-0.1963405238828968
-0.15208012326656384
-0.15208012326656384
-0.1444530046224961
-0.1444530046224961
-0.24533898305084745
-0.24533898305084745
-0.24533898305084745
-0.24533898305084745
-0.24129429892141752
-0.24129429892141752
-0.24129429892141752
-0.5114791987673344
-0.5114791987673344
-0.5114791987673344
-0.4851309707241911
-0.4851309707241911
-0.4851309707241911
-0.6116718027734978
-0.6116718027734978
-0.6949922958397534
-0.6949922958397534
-0.6949922958397534
-0.6603235747303544
-0.6603235747303544
-0.6603235747303544
-0.8095146379044684
-0.8095146379044684
-0.7049306625577811
-0.7049306625577811
-0.7049306625577811
-0.7049306625577811
-0.7779661016949152
-0.7772727272727273
-0.6810092449922958
-0.6810092449922958
-0.6810092449922958
-0.75
-0.75
-0.75
-0.7377503852080123
-0.7377503852080123
-0.7377503852080123
-0.6892141756548537
-0.6892141756548537
-0.6892141756548537
-0.786517719568567
-0.786517719568567
-0.786517719568567
-0.673728813559322
-0.673728813559322
-0.714406779661017
-0.714406779661017
-0.714406779661017
-0.7020416024653313
-0.7020416024653313
-0.7020416024653313
-0.7094375963020031
-0.7094375963020031
-0.7094375963020031
-0.6339753466872111
-0.6339753466872111
-0.6339753466872111
-0.6540832049306626
-0.6540832049306626
-0.7372881355932204
-0.7372881355932204
-0.7372881355932204
-0.563020030816641
-0.563020030816641
-0.563020030816641
-0.7354391371340523
-0.7354391371340523
-0.6347842835130971
-0.6347842835130971
-0.6347842835130971
-0.6347842835130971
-0.6614791987673344
-0.6614791987673344
-0.6614791987673344
-0.7211093990755008
-0.7211093990755008
-0.6159476117103235
-0.6159476117103235
-0.6159476117103235
-0.7184514637904469
-0.7184514637904469
-0.7184514637904469
-0.6293528505392912
-0.6293528505392912
-0.6293528505392912
-0.6872496147919875
-0.6872496147919875
-0.6872496147919875
-0.6576656394453004
-0.6576656394453004
-0.6576656394453004
-0.604391371340524
-0.604391371340524
-0.604391371340524
-0.7256163328197227
-0.7256163328197227
-0.6134052388289677
-0.6134052388289677
-0.6134052388289677
-0.6134052388289677
-0.6768489984591679
-0.6768489984591679
-0.6369799691833591
-0.6369799691833591
-0.6369799691833591
-0.6136363636363635
-0.6136363636363635
-0.6136363636363635
-0.6925654853620956
-0.6925654853620956
-0.6925654853620956
-0.5891371340523883
-0.5891371340523883
-0.6541987673343606
-0.6541987673343606
-0.6541987673343606
-0.5720338983050848
-0.5720338983050848
-0.5720338983050848
-0.5720338983050848
-0.5743451463790448
-0.5743451463790448
-0.5743451463790448
-0.569144838212635
-0.569144838212635
-0.48339753466872115
-0.48339753466872115
-0.48339753466872115
-0.5321648690292758
-0.5321648690292758
-0.48663328197226496
-0.48663328197226496
-0.48663328197226496
-0.48663328197226496
-0.489869029275809
-0.489869029275809
-0.489869029275809
-0.5409476117103236
-0.5409476117103236
-0.5187596302003081
-0.5187596302003081
-0.5187596302003081
-0.6516563944530046
-0.6516563944530046
-0.5130970724191062
-0.5130970724191062
-0.5130970724191062
-0.5130970724191062
-0.6458782742681048
-0.6458782742681048
-0.6595146379044683
-0.6595146379044683
-0.6595146379044683
-0.5526194144838212
-0.5526194144838212
-0.5526194144838212
-0.5526194144838212
-0.6425269645608629
-0.6425269645608629
-0.5529661016949152
-0.5529661016949152
-0.636517719568567
-0.636517719568567
-0.636517719568567
-0.6656394453004623
-0.6656394453004623
-0.6656394453004623
-0.6656394453004623
-0.5194530046224962
-0.5194530046224962
-0.5194530046224962
0.07419106317411428
0.07419106317411428
0.07419106317411428
0.4792372881355931
0.4792372881355931
0.4833975346687214
0.4833975346687214
0.4833975346687214
0.4828197226502311
0.4828197226502311
0.4828197226502311
0.4753081664098613
0.4753081664098613
0.4753081664098613
0.006240369799691781
0.006240369799691781
-0.6689907550077042
-0.6689907550077042
-0.6689907550077042
-0.6689907550077042
-0.5023497688751927
-0.5023497688751927
-0.5039676425269646
-0.5039676425269646
-0.5039676425269646
-0.6602080123266564
-0.6602080123266564
-0.5804699537750384
-0.5804699537750384
-0.5804699537750384
-0.5804699537750384
-0.5616332819722651
-0.5616332819722651
-0.5616332819722651
-0.6425269645608629
-0.6425269645608629
-0.6425269645608629
-0.5459167950693374
-0.5459167950693374
-0.5807010785824345
-0.5807010785824345
-0.5807010785824345
-0.5326271186440679
-0.5326271186440679
-0.5326271186440679
-0.5044298921417566
-0.5044298921417566
-0.5044298921417566
-0.560130970724191
-0.560130970724191
-0.4174114021571649
-0.4174114021571649
-0.4174114021571649
-0.49021571648690276
-0.49021571648690276
-0.36887519260400614
-0.36887519260400614
-0.36887519260400614
-0.33825115562403707
-0.33825115562403707
-0.33825115562403707
-0.35755007704160247
-0.35755007704160247
-0.35755007704160247
-0.221186440677966
-0.221186440677966
-0.221186440677966
-0.2675269645608629
-0.2675269645608629
-0.2675269645608629
-0.14780431432973806
-0.14780431432973806
-0.15843605546995376
-0.15843605546995376
-0.15843605546995376
-0.14965331278890615
-0.14965331278890615
-0.14965331278890615
-0.05119414483821272
-0.05119414483821272
-0.05119414483821272
-0.05119414483821272
-0.1652542372881356
-0.1652542372881356
-0.1652542372881356
-0.2136748844375962
-0.2136748844375962
-0.27885208012326657
-0.27885208012326657
-0.27885208012326657
-0.48570878274268114
-0.48570878274268114
-0.48570878274268114
-0.6362865947611711
-0.6362865947611711
-0.6261171032357473
-0.6261171032357473
-0.6261171032357473
-0.7533513097072418
-0.7533513097072418
-0.7533513097072418
-0.7334745762711865
-0.7334745762711865
-0.7334745762711865
-0.7525423728813558
-0.7525423728813558
-0.7525423728813558
-0.8003852080123266
-0.8003852080123266
-0.8003852080123266
-0.6932588597842835
-0.6932588597842835
-0.6932588597842835
-0.7535824345146379
-0.7535824345146379
-0.7535824345146379
-0.7668721109399076
-0.7668721109399076
-0.7525423728813558
-0.7525423728813558
-0.7525423728813558
-0.7179892141756549
-0.7179892141756549
-0.7179892141756549
-0.6946456086286595
-0.6946456086286595
-0.6946456086286595
-0.6946456086286595
-0.7457241910631741
-0.7457241910631741
-0.6489984591679507
-0.6489984591679507
-0.6489984591679507
-0.7427195685670263
-0.7427195685670263
-0.7427195685670263
-0.7073574730354392
-0.7073574730354392
-0.7073574730354392
-0.5974576271186441
-0.5974576271186441
-0.5974576271186441
-0.7608628659476117
-0.7608628659476117
-0.6501540832049306
-0.6501540832049306
-0.6501540832049306
-0.6802003081664099
-0.6802003081664099
-0.6802003081664099
-0.6802003081664099
-0.7178736517719568
-0.7178736517719568
-0.6173343605546995
-0.6173343605546995
-0.6918721109399075
-0.6918721109399075
-0.6918721109399075
-0.6918721109399075
-0.6852850539291218
-0.6852850539291218
-0.6852850539291218
-0.7280431432973806
-0.7280431432973806
-0.7280431432973806
-0.6300462249614793
-0.6300462249614793
-0.6300462249614793
-0.6461093990755007
-0.6461093990755007
-0.7209938366718027
-0.7209938366718027
-0.7209938366718027
-0.6030046224961478
-0.6030046224961478
-0.6030046224961478
-0.7035439137134052
-0.7035439137134052
-0.7035439137134052
-0.6806625577812019
-0.6806625577812019
-0.6806625577812019
-0.6278505392912173
-0.6278505392912173
-0.6278505392912173
-0.7151001540832049
-0.7151001540832049
-0.5864791987673343
-0.5864791987673343
-0.5864791987673343
-0.7048151001540832
-0.7048151001540832
-0.7048151001540832
-0.6183744221879814
-0.6183744221879814
-0.6183744221879814
-0.6444915254237289
-0.6444915254237289
-0.6444915254237289
-0.6431047765793528
-0.6431047765793528
-0.5742295839753466
-0.5742295839753466
-0.5742295839753466
-0.6225346687211095
-0.6225346687211095
-0.6225346687211095
-0.5307781201848998
-0.5307781201848998
-0.5307781201848998
-0.5808166409861326
-0.5808166409861326
-0.5808166409861326
-0.5808166409861326
-0.5204930662557782
-0.5204930662557782
-0.49680277349768875
-0.49680277349768875
-0.49680277349768875
-0.5678736517719569
-0.5678736517719569
-0.4587827426810478
-0.4587827426810478
-0.4587827426810478
-0.4587827426810478
-0.5852080123266563
-0.5852080123266563
-0.563020030816641
-0.563020030816641
-0.563020030816641
-0.5644067796610168
-0.5644067796610168
-0.5644067796610168
-0.5644067796610168
-0.6348998459167949
-0.6348998459167949
-0.5875192604006163
-0.5875192604006163
-0.5875192604006163
-0.637442218798151
-0.637442218798151
-0.6006933744221881
-0.6006933744221881
-0.6006933744221881
-0.600462249614792
-0.600462249614792
-0.600462249614792
-0.600462249614792
-0.6350154083204931
-0.6350154083204931
-0.6298151001540833
-0.6298151001540833
-0.6298151001540833
-0.7060862865947611
-0.7060862865947611
-0.1258474576271187
-0.1258474576271187
-0.1258474576271187
-0.1258474576271187
0.4636363636363636
0.4636363636363636
0.4636363636363636
0.48097072419106324
0.48097072419106324
0.48385978428351306
0.48385978428351306
0.48385978428351306
0.48097072419106324
0.48097072419106324
0.48097072419106324
0.3439137134052388
0.3439137134052388
-0.5662557781201849
-0.5662557781201849
-0.5662557781201849
-0.5859013867488443
-0.5859013867488443
-0.5859013867488443
-0.42827426810477665
-0.42827426810477665
-0.42827426810477665
-0.6926810477657934
-0.6926810477657934
-0.6926810477657934
-0.555855161787365
-0.555855161787365
-0.6331664098613252
-0.6331664098613252
-0.6331664098613252
-0.6517719568567026
-0.6517719568567026
-0.6517719568567026
-0.5782742681047766
-0.5782742681047766
-0.5782742681047766
-0.5901771956856703
-0.5901771956856703
-0.5901771956856703
-0.52846687211094
-0.52846687211094
-0.52846687211094
-0.5730739599383667
-0.5730739599383667
-0.485246533127889
-0.485246533127889
-0.485246533127889
-0.5021186440677966
-0.5021186440677966
-0.5021186440677966
-0.4748459167950694
-0.4748459167950694
-0.4748459167950694
-0.4041217257318952
-0.4041217257318952
-0.4041217257318952
-0.44965331278890597
-0.44965331278890597
-0.44965331278890597
-0.2934129429892143
-0.2934129429892143
-0.34252696456086285
-0.34252696456086285
-0.34252696456086285
-0.28474576271186436
-0.28474576271186436
-0.28474576271186436
-0.18270416024653313
-0.18270416024653313
-0.18270416024653313
-0.18270416024653313
-0.21159476117103226
-0.21159476117103226
-0.21159476117103226
-0.09822804314329736
-0.09822804314329736
-0.1750770416024654
-0.1750770416024654
-0.1750770416024654
-0.14838212634822812
-0.14838212634822812
-0.14838212634822812
-0.11914483821263477
-0.11914483821263477
-0.11914483821263477
-0.3187211093990754
-0.3187211093990754
-0.3833204930662557
-0.3833204930662557
-0.3833204930662557
-0.5117103235747303
-0.5117103235747303
-0.5117103235747303
-0.5292758089368259
-0.5292758089368259
-0.5292758089368259
-0.6976502311248074
-0.6976502311248074
-0.7600539291217256
-0.7600539291217256
-0.7600539291217256
-0.677773497688752
-0.677773497688752
-0.677773497688752
-0.677773497688752
-0.8166795069337442
-0.8166795069337442
-0.8166795069337442
-0.7364791987673343
-0.7364791987673343
-0.7555469953775038
-0.7555469953775038
-0.7555469953775038
-0.8090523882896764
-0.8090523882896764
-0.8090523882896764
-0.7407550077041603
-0.7407550077041603
-0.7407550077041603
-0.8111325115562403
-0.8111325115562403
-0.8111325115562403
-0.7072419106317411
-0.7072419106317411
-0.7072419106317411
-0.7420261941448383
-0.7420261941448383
-0.7420261941448383
-0.7204160246533127
-0.7204160246533127
-0.6886363636363637
-0.6886363636363637
-0.6886363636363637
-0.6886363636363637
-0.715331278890601
-0.715331278890601
-0.6605546995377503
-0.6605546995377503
-0.6605546995377503
-0.7288520801232666
-0.7288520801232666
-0.7288520801232666
-0.7040061633281972
-0.7040061633281972
-0.6583590138674885
-0.6583590138674885
-0.6583590138674885
-0.7280431432973806
-0.7280431432973806
-0.7280431432973806
-0.6479583975346688
-0.6479583975346688
-0.6479583975346688
-0.6479583975346688
-0.7208782742681048
-0.7208782742681048
-0.7208782742681048
-0.6489984591679507
-0.6489984591679507
-0.6697996918335901
-0.6697996918335901
-0.6697996918335901
-0.7264252696456086
-0.7264252696456086
-0.5689137134052389
-0.5689137134052389
-0.5689137134052389
-0.5689137134052389
-0.7590138674884437
-0.7590138674884437
-0.7590138674884437
-0.6828582434514638
-0.6828582434514638
-0.6828582434514638
-0.6466872110939907
-0.6466872110939907
-0.6676040061633282
-0.6676040061633282
-0.6676040061633282
-0.670146379044684
-0.670146379044684
-0.7206471494607087
-0.7206471494607087
-0.7206471494607087
-0.6046224961479199
-0.6046224961479199
-0.6046224961479199
-0.6873651771956857
-0.6873651771956857
-0.6873651771956857
-0.6535053929121726
-0.6535053929121726
-0.602773497688752
-0.602773497688752
-0.602773497688752
-0.6590523882896764
-0.6590523882896764
-0.6590523882896764
-0.6238058551617873
-0.6238058551617873
-0.6826271186440678
-0.6826271186440678
-0.6826271186440678
-0.6826271186440678
-0.5336671802773498
-0.5336671802773498
-0.5336671802773498
-0.5445300462249616
-0.5445300462249616
-0.5782742681047766
-0.5782742681047766
-0.5782742681047766
-0.47588597842835134
-0.47588597842835134
-0.47588597842835134
-0.5782742681047766
-0.5782742681047766
-0.5782742681047766
-0.49287365177195674
-0.49287365177195674
-0.49287365177195674
-0.5132126348228043
-0.5132126348228043
-0.5132126348228043
-0.5951463790446841
-0.5951463790446841
-0.5387519260400615
-0.5387519260400615
-0.5387519260400615
-0.6795069337442219
-0.6795069337442219
-0.6795069337442219
-0.6047380585516179
-0.6047380585516179
-0.640677966101695
-0.640677966101695
-0.640677966101695
-0.640677966101695
-0.5887904468412943
-0.5887904468412943
-0.5887904468412943
-0.5901771956856703
-0.5901771956856703
-0.6946456086286595
-0.6946456086286595
-0.5605932203389832
-0.5605932203389832
-0.5605932203389832
-0.711633281972265
-0.711633281972265
-0.711633281972265
-0.41891371340523875
-0.41891371340523875
0.33374422187981523
0.33374422187981523
0.33374422187981523
0.480624036979969
0.480624036979969
0.48374422187981514
0.48374422187981514
0.48212634822804334
0.48212634822804334
0.48212634822804334
0.4526579352850537
0.4526579352850537
-0.25134822804314316
-0.25134822804314316
-0.25134822804314316
-0.6659861325115561
-0.6659861325115561
-0.6659861325115561
-0.39880585516178724
-0.39880585516178724
-0.6213790446841294
-0.6213790446841294
-0.5676425269645609
-0.5676425269645609
-0.5676425269645609
-0.5807010785824345
-0.5807010785824345
-0.5807010785824345
-0.6630970724191063
-0.6630970724191063
-0.6630970724191063
-0.5587442218798151
-0.5587442218798151
-0.6115562403697996
-0.6115562403697996
-0.5315870570107859
-0.5315870570107859
-0.5552773497688752
-0.5552773497688752
-0.5552773497688752
-0.49634052388289684
-0.49634052388289684
-0.49634052388289684
-0.48778890600924507
-0.48778890600924507
-0.4821263482280431
-0.4821263482280431
-0.38436055469953767
-0.38436055469953767
-0.38436055469953767
-0.42746533127889075
-0.42746533127889075
-0.42746533127889075
-0.36344375963020026
-0.36344375963020026
-0.30127118644067785
-0.30127118644067785
-0.30127118644067785
-0.3005778120184899
-0.3005778120184899
-0.16617873651771964
-0.16617873651771964
-0.23274268104776574
-0.23274268104776574
-0.11244221879815108
-0.11244221879815108
-0.11244221879815108
-0.1055084745762711
-0.1055084745762711
-0.1055084745762711
-0.2226887519260401
-0.2226887519260401
-0.2226887519260401
-0.12064714946070865
-0.12064714946070865
-0.12064714946070865
-0.2262711864406779
-0.2262711864406779
-0.32923728813559316
-0.32923728813559316
-0.487904468412943
-0.487904468412943
-0.487904468412943
-0.5386363636363637
-0.5386363636363637
-0.597573189522342
-0.597573189522342
-0.597573189522342
-0.7382126348228043
-0.7382126348228043
-0.7382126348228043
-0.6550077041602466
-0.6550077041602466
-0.787788906009245
-0.787788906009245
-0.7582049306625578
-0.7582049306625578
-0.7187981510015408
-0.7187981510015408
-0.7187981510015408
-0.7187981510015408
-0.8263867488443759
-0.8263867488443759
-0.8263867488443759
-0.7085130970724192
-0.7085130970724192
-0.7961093990755007
-0.7075885978428351
-0.7075885978428351
-0.7075885978428351
-0.6821648690292759
-0.6821648690292759
-0.6821648690292759
-0.7691833590138675
-0.7691833590138675
-0.7691833590138675
-0.6529275808936826
-0.6529275808936826
-0.6875963020030817
-0.6875963020030817
-0.6593990755007705
-0.6593990755007705
-0.7275808936825886
-0.7275808936825886
-0.7275808936825886
-0.6930277349768876
-0.6930277349768876
-0.6240369799691834
-0.6240369799691834
-0.6240369799691834
-0.7313944530046226
-0.7313944530046226
-0.7313944530046226
-0.6403312788906008
-0.6403312788906008
-0.6395223420647149
-0.6395223420647149
-0.6224191063174114
-0.6224191063174114
-0.6224191063174114
-0.6669106317411403
-0.6669106317411403
-0.6669106317411403
-0.7437596302003082
-0.7437596302003082
-0.7437596302003082
-0.602080123266564
-0.602080123266564
-0.7332434514637904
-0.7332434514637904
-0.7332434514637904
-0.6217257318952234
-0.6217257318952234
-0.6313174114021571
-0.6313174114021571
-0.6313174114021571
-0.6872496147919875
-0.6872496147919875
-0.45739599383667184
-0.45739599383667184
-0.5944530046224961
-0.5944530046224961
-0.5944530046224961
-0.5058166409861324
-0.5058166409861324
-0.7220338983050847
-0.7220338983050847
-0.7220338983050847
-0.786633281972265
-0.786633281972265
-0.444337442218798
-0.444337442218798
-0.444337442218798
-0.8882126348228043
-0.8882126348228043
-0.8882126348228043
-0.6325885978428352
-0.6325885978428352
-0.6072804314329738
-0.6072804314329738
-0.6993836671802773
-0.6993836671802773
-0.6993836671802773
-0.5707627118644069
-0.5707627118644069
-0.5707627118644069
-0.6901386748844376
-0.6901386748844376
-0.5044298921417566
-0.5044298921417566
-0.5186440677966102
-0.5186440677966102
-0.5186440677966102
-0.6273882896764253
-0.6273882896764253
-0.4571648690292758
-0.4571648690292758
-0.4571648690292758
-0.5577041602465331
-0.5577041602465331
-0.5507704160246534
-0.5507704160246534
-0.5507704160246534
-0.565331278890601
-0.565331278890601
-0.5389830508474576
-0.5389830508474576
-0.5389830508474576
-0.5610554699537751
-0.5610554699537751
-0.6183744221879814
-0.6183744221879814
-0.6183744221879814
-0.5600154083204931
-0.5600154083204931
-0.5600154083204931
-0.6447226502311247
-0.6447226502311247
-0.5677580893682588
-0.5677580893682588
-0.558513097072419
-0.558513097072419
-0.6310862865947613
-0.6310862865947613
-0.6310862865947613
-0.5503081664098614
-0.5503081664098614
-0.5503081664098614
-0.75057781201849
-0.75057781201849
-0.75057781201849
-0.5835901386748845
-0.5835901386748845
0.03235747303543923
0.03235747303543923
0.03235747303543923
0.4770416024653312
0.4770416024653312
0.4820107858243452
0.4820107858243452
0.4820107858243452
0.48374422187981514
0.48374422187981514
0.480624036979969
0.480624036979969
0.480624036979969
0.20119414483821263
0.20119414483821263
0.20119414483821263
-0.6159476117103235
-0.49911402157164875
-0.49911402157164875
-0.49911402157164875
-0.48848228043143305
-0.48848228043143305
-0.48848228043143305
-0.5843990755007704
-0.5843990755007704
-0.5843990755007704
-0.6862095531587056
-0.6862095531587056
-0.605431432973806
-0.605431432973806
-0.605431432973806
-0.6060092449922959
-0.6060092449922959
-0.6296995377503851
-0.6296995377503851
-0.5359784283513098
-0.5359784283513098
-0.5359784283513098
-0.5947996918335903
-0.5947996918335903
-0.3800847457627117
-0.3800847457627117
-0.3800847457627117
-0.5441833590138674
-0.5441833590138674
-0.6084360554699537
-0.6084360554699537
-0.6084360554699537
-0.30982280431432985
-0.30982280431432985
-0.487904468412943
-0.487904468412943
-0.487904468412943
-0.3285439137134052
-0.3285439137134052
-0.3285439137134052
-0.38782742681047777
-0.38782742681047777
-0.38782742681047777
-0.35073189522342063
-0.35073189522342063
-0.17993066255778123
-0.17993066255778123
-0.20986132511556232
-0.20986132511556232
-0.20986132511556232
-0.14768875192604014
-0.14768875192604014
-0.14768875192604014
-0.14433744221879818
-0.14433744221879818
-0.10573959938366717
-0.10573959938366717
-0.1683744221879815
-0.1683744221879815
-0.1683744221879815
-0.25250385208012327
-0.25250385208012327
-0.25250385208012327
-0.20281201848998442
-0.20281201848998442
-0.44676425269645614
-0.44676425269645614
-0.45774268104776583
-0.45774268104776583
-0.45774268104776583
-0.5283513097072419
-0.5283513097072419
-0.7683744221879815
-0.7683744221879815
-0.6217257318952234
-0.6217257318952234
-0.7441063174114022
-0.7441063174114022
-0.7441063174114022
-0.7441063174114022
-0.7768104776579353
-0.7768104776579353
-0.7768104776579353
-0.7411016949152542
-0.7411016949152542
-0.7850154083204931
-0.7850154083204931
-0.7850154083204931
-0.7747303543913713
-0.7747303543913713
-0.8025808936825886
-0.8025808936825886
-0.8025808936825886
-0.6786979969183358
-0.6786979969183358
-0.6786979969183358
-0.7255007704160247
-0.672919876733436
-0.672919876733436
-0.672919876733436
-0.7068952234206471
-0.7068952234206471
-0.7068952234206471
-0.8038520801232665
-0.8038520801232665
-0.562095531587057
-0.562095531587057
-0.6405624036979969
-0.6405624036979969
-0.6405624036979969
-0.7630585516178736
-0.7630585516178736
-0.7630585516178736
-0.6301617873651771
-0.6301617873651771
-0.6301617873651771
-0.713597842835131
-0.713597842835131
-0.6099383667180277
-0.6099383667180277
-0.6944144838212635
-0.6944144838212635
-0.6944144838212635
-0.6373266563944531
-0.6373266563944531
-0.6373266563944531
-0.6087827426810477
-0.6087827426810477
-0.750924499229584
-0.750924499229584
-0.750924499229584
-0.5755007704160247
-0.5755007704160247
-0.7281587057010785
-0.7281587057010785
-0.598151001540832
-0.598151001540832
-0.598151001540832
-0.6607858243451463
-0.6607858243451463
-0.6607858243451463
-0.7646764252696456
-0.7646764252696456
-0.7646764252696456
-0.5536594761171033
-0.5536594761171033
-0.5536594761171033
-0.6952234206471495
-0.6952234206471495
-0.6732665639445301
-0.6732665639445301
-0.6551232665639446
-0.6551232665639446
-0.6551232665639446
-0.564060092449923
-0.564060092449923
-0.564060092449923
-0.46617873651771946
-0.46617873651771946
-0.6585901386748845
-0.6585901386748845
-0.6585901386748845
-0.4844375963020031
-0.4844375963020031
-0.5791987673343606
-0.5791987673343606
-0.527195685670262
-0.527195685670262
-0.527195685670262
-0.5033898305084746
-0.5033898305084746
-0.6391756548536209
-0.6391756548536209
-0.6391756548536209
-0.5085901386748845
-0.5085901386748845
-0.5085901386748845
-0.6857473035439137
-0.6857473035439137
-0.5895993836671802
-0.5895993836671802
-0.5895993836671802
-0.6123651771956857
-0.6123651771956857
-0.6123651771956857
-0.7175269645608628
-0.7175269645608628
-0.5174884437596301
-0.5174884437596301
-0.6333975346687211
-0.6333975346687211
-0.6333975346687211
-0.637095531587057
-0.637095531587057
-0.7152157164869029
-0.7152157164869029
-0.3774268104776579
-0.3774268104776579
-0.3774268104776579
0.39522342064714944
0.39522342064714944
0.39522342064714944
0.47981510015408313
0.47981510015408313
0.47981510015408313
0.48351309707241885
0.48351309707241885
0.4824730354391371
0.4824730354391371
0.4176425269645607
0.4176425269645607
0.4176425269645607
-0.40192604006163335
-0.40192604006163335
-0.40192604006163335
-0.637904468412943
-0.637904468412943
-0.35627889060092444
-0.35627889060092444
-0.35627889060092444
-0.6144453004622497
-0.6144453004622497
-0.6040446841294298
-0.6040446841294298
-0.6040446841294298
-0.6087827426810477
-0.6087827426810477
-0.6143297380585516
-0.6143297380585516
-0.4742681047765793
-0.4742681047765793
-0.4742681047765793
-0.6944144838212635
-0.6944144838212635
-0.6944144838212635
-0.5193374422187982
-0.5193374422187982
-0.48455315870570104
-0.48455315870570104
-0.5816255778120185
-0.5816255778120185
-0.5816255778120185
-0.4095531587057011
-0.4095531587057011
-0.4095531587057011
-0.48651771956856704
-0.48651771956856704
-0.48651771956856704
-0.368412942989214
-0.368412942989214
-0.39765023112480735
-0.39765023112480735
-0.39765023112480735
-0.34680277349768884
-0.34680277349768884
-0.2696070878274268
-0.2696070878274268
-0.2696070878274268
-0.3293528505392911
-0.3293528505392911
-0.11602465331278888
-0.11602465331278888
-0.18674884437596306
-0.18674884437596306
-0.18674884437596306
-0.15416024653312776
-0.15416024653312776
-0.028428351309707223
-0.028428351309707223
-0.22049306625577803
-0.22049306625577803
-0.22049306625577803
-0.07303543913713395
-0.07303543913713395
-0.07303543913713395
-0.26498459167950683
-0.26498459167950683
-0.26498459167950683
-0.42087827426810476
-0.42087827426810476
-0.42838983050847457
-0.42838983050847457
-0.42838983050847457
-0.6055469953775038
-0.6055469953775038
-0.6422958397534669
-0.6422958397534669
-0.6422958397534669
-0.7978428351309708
-0.7978428351309708
-0.7978428351309708
-0.7045839753466872
-0.7045839753466872
-0.7814329738058552
-0.7814329738058552
-0.7814329738058552
-0.823613251155624
-0.823613251155624
-0.7152157164869029
-0.7152157164869029
-0.7152157164869029
-0.8684514637904469
-0.8684514637904469
-0.7347457627118645
-0.7347457627118645
-0.7347457627118645
-0.7750770416024653
-0.7750770416024653
-0.7750770416024653
-0.7838597842835131
-0.7838597842835131
-0.6694530046224962
-0.6694530046224962
-0.7937981510015408
-0.7937981510015408
-0.7937981510015408
-0.714291217257319
-0.714291217257319
-0.714291217257319
-0.7623651771956856
-0.7623651771956856
-0.7623651771956856
-0.6916409861325115
-0.6916409861325115
-0.6836671802773497
-0.6836671802773497
-0.6836671802773497
-0.7802773497688752
-0.7802773497688752
-0.6489984591679507
-0.6489984591679507
-0.6489984591679507
-0.7409861325115563
-0.7409861325115563
-0.675115562403698
-0.675115562403698
-0.675115562403698
-0.6738443759630202
-0.6738443759630202
-0.6738443759630202
-0.7355546995377504
-0.7355546995377504
-0.6266949152542374
-0.6266949152542374
-0.74768875192604
-0.74768875192604
-0.74768875192604
-0.6145608628659477
-0.6145608628659477
-0.6145608628659477
-0.7360169491525423
-0.7360169491525423
-0.7360169491525423
-0.7397149460708783
-0.7397149460708783
-0.5898305084745763
-0.5898305084745763
-0.5898305084745763
-0.7719568567026194
-0.7719568567026194
-0.6281972265023112
-0.6281972265023112
-0.6281972265023112
-0.6878274268104776
-0.6878274268104776
-0.6213790446841294
-0.6213790446841294
-0.6213790446841294
-0.5181818181818182
-0.5181818181818182
-0.6565100154083205
-0.6565100154083205
-0.488251155624037
-0.488251155624037
-0.488251155624037
-0.5840523882896764
-0.5840523882896764
-0.5372496147919876
-0.5372496147919876
-0.5372496147919876
-0.5372496147919876
-0.5432588597842836
-0.5432588597842836
-0.6614791987673344
-0.6614791987673344
-0.6614791987673344
-0.5741140215716487
-0.5741140215716487
-0.6932588597842835
-0.6932588597842835
-0.6426425269645608
-0.6426425269645608
-0.6426425269645608
-0.6513097072419107
-0.6513097072419107
-0.6513097072419107
-0.6924499229583976
-0.6924499229583976
-0.5921417565485363
-0.5921417565485363
-0.5921417565485363
-0.6788135593220339
-0.6788135593220339
-0.6295839753466872
-0.6295839753466872
-0.6295839753466872
-0.7672187981510016
-0.7672187981510016
-0.4970338983050848
-0.4970338983050848
-0.4970338983050848
0.3097072419106317
0.3097072419106317
0.3097072419106317
0.47981510015408313
0.47981510015408313
0.483628659476117
0.483628659476117
0.48224191063174127
0.48224191063174127
0.48224191063174127
0.45312018489984585
0.45312018489984585
0.45312018489984585
-0.31305855161787366
-0.31305855161787366
-0.7512711864406779
-0.7512711864406779
-0.7512711864406779
-0.3725731895223421
-0.3725731895223421
-0.6993836671802773
-0.6993836671802773
-0.6391756548536209
-0.6391756548536209
-0.6391756548536209
-0.5655624036979969
-0.5655624036979969
-0.7266563944530047
-0.7266563944530047
-0.7266563944530047
-0.5805855161787365
-0.5805855161787365
-0.5805855161787365
-0.6495762711864407
-0.6495762711864407
-0.5417565485362096
-0.5417565485362096
-0.5890215716486902
-0.5890215716486902
-0.5890215716486902
-0.597804314329738
-0.597804314329738
-0.45670261941448387
-0.45670261941448387
-0.45670261941448387
-0.5528505392912173
-0.5528505392912173
-0.5528505392912173
-0.4044684129429892
-0.4044684129429892
-0.4193759630200309
-0.4193759630200309
-0.413597842835131
-0.413597842835131
-0.413597842835131
-0.266718027734977
-0.266718027734977
-0.266718027734977
-0.3175654853620955
-0.3175654853620955
-0.16467642526964577
-0.16467642526964577
-0.16467642526964577
-0.25238828967642535
-0.25238828967642535
-0.1578582434514637
-0.1578582434514637
-0.08701848998459161
-0.08701848998459161
-0.08701848998459161
-0.2184129429892141
-0.2184129429892141
-0.2184129429892141
-0.0830893682588596
-0.0830893682588596
-0.0830893682588596
-0.3132896764252697
-0.3132896764252697
-0.30323574730354386
-0.30323574730354386
-0.4643297380585516
-0.4643297380585516
-0.6570878274268105
-0.6570878274268105
-0.6570878274268105
-0.5815100154083204
-0.5815100154083204
-0.5815100154083204
-0.784322033898305
-0.784322033898305
-0.7048151001540832
-0.7048151001540832
-0.7048151001540832
-0.7968027734976888
-0.7968027734976888
-0.8362095531587057
-0.8362095531587057
-0.8362095531587057
-0.6947611710323573
-0.6947611710323573
-0.8357473035439137
-0.8357473035439137
-0.8357473035439137
-0.7095531587057011
-0.7095531587057011
-0.7095531587057011
-0.7753081664098613
-0.7753081664098613
-0.7753081664098613
-0.7676810477657936
-0.7676810477657936
-0.7676810477657936
-0.6674884437596301
-0.6674884437596301
-0.791486902927581
-0.791486902927581
-0.791486902927581
-0.791486902927581
-0.6677195685670262
-0.6677195685670262
-0.6677195685670262
-0.7265408320493066
-0.7265408320493066
-0.7265408320493066
-0.7058551617873652
-0.7058551617873652
-0.6921032357473035
-0.6921032357473035
-0.6921032357473035
-0.7294298921417566
-0.7294298921417566
-0.7294298921417566
-0.5914483821263483
-0.5914483821263483
-0.5914483821263483
-0.7441063174114022
-0.7441063174114022
-0.6565100154083205
-0.6565100154083205
-0.6565100154083205
-0.6589368258859784
-0.6589368258859784
-0.7265408320493066
-0.7265408320493066
-0.7265408320493066
-0.6142141756548536
-0.6142141756548536
-0.7430662557781202
-0.7430662557781202
-0.7430662557781202
-0.6295839753466872
-0.6295839753466872
-0.6295839753466872
-0.6704930662557782
-0.6704930662557782
-0.7036594761171033
-0.7036594761171033
-0.6042758089368259
-0.6042758089368259
-0.7584360554699537
-0.7584360554699537
-0.7584360554699537
-0.7584360554699537
-0.596764252696456
-0.596764252696456
-0.6598613251155625
-0.6598613251155625
-0.6598613251155625
-0.59826656394453
-0.59826656394453
-0.5167950693374423
-0.5167950693374423
-0.5167950693374423
-0.5843990755007704
-0.5843990755007704
-0.46895223420647136
-0.46895223420647136
-0.46895223420647136
-0.6369799691833591
-0.6369799691833591
-0.5057010785824345
-0.5057010785824345
-0.5057010785824345
-0.5135593220338983
-0.5135593220338983
-0.5135593220338983
-0.6498073959938367
-0.6498073959938367
-0.5693759630200308
-0.5693759630200308
-0.7161402157164869
-0.7161402157164869
-0.7161402157164869
-0.6087827426810477
-0.6087827426810477
-0.6087827426810477
-0.6061248073959937
-0.6061248073959937
-0.6061248073959937
-0.6808936825885978
-0.6808936825885978
-0.6000000000000001
-0.6000000000000001
-0.6749999999999999
-0.6749999999999999
-0.6749999999999999
-0.6013867488443759
-0.6013867488443759
-0.6013867488443759
-0.7141756548536209
-0.7141756548536209
-0.39406779661016955
-0.39406779661016955
-0.39406779661016955
0.3697996918335902
0.3697996918335902
0.4812018489984593
0.4812018489984593
0.48293528505392924
0.48293528505392924
0.48293528505392924
0.48212634822804334
0.48212634822804334
0.4370570107858245
0.4370570107858245
0.4370570107858245
0.4370570107858245
-0.35835901386748836
-0.35835901386748836
-0.7185670261941448
-0.7185670261941448
-0.38551617873651756
-0.38551617873651756
-0.6610169491525424
-0.6610169491525424
-0.6610169491525424
-0.6205701078582434
-0.6205701078582434
-0.6205701078582434
-0.5823189522342065
-0.5823189522342065
-0.712788906009245
-0.712788906009245
-0.5312403697996919
-0.5312403697996919
-0.6629815100154084
-0.6629815100154084
-0.6629815100154084
-0.5549306625577812
-0.5549306625577812
-0.5549306625577812
-0.5326271186440679
-0.5326271186440679
-0.561748844375963
-0.561748844375963
-0.561748844375963
-0.44676425269645614
-0.44676425269645614
-0.44676425269645614
-0.5626733436055471
-0.37083975346687215
-0.37083975346687215
-0.37083975346687215
-0.41290446841294304
-0.41290446841294304
-0.41290446841294304
-0.39845916795069325
-0.39845916795069325
-0.39845916795069325
-0.25862865947611713
-0.25862865947611713
-0.34888289676425277
-0.34888289676425277
-0.34888289676425277
-0.17496147919876726
-0.17496147919876726
-0.17496147919876726
-0.21852850539291224
-0.21852850539291224
-0.21852850539291224
-0.16155624036979965
-0.16155624036979965
-0.16155624036979965
-0.10527734976887526
-0.10527734976887526
-0.22534668721109385
-0.22534668721109385
-0.22534668721109385
-0.10932203389830497
-0.10932203389830497
-0.10932203389830497
-0.3179121725731895
-0.3179121725731895
-0.3293528505392911
-0.3293528505392911
-0.4348613251155624
-0.4348613251155624
-0.4348613251155624
-0.4348613251155624
-0.6819337442218798
-0.6819337442218798
-0.6819337442218798
-0.558166409861325
-0.558166409861325
-0.558166409861325
-0.7610939907550076
-0.7610939907550076
-0.7610939907550076
-0.7231895223420647
-0.7231895223420647
-0.783628659476117
-0.783628659476117
-0.783628659476117
-0.7852465331278891
-0.7852465331278891
-0.7852465331278891
-0.7015793528505394
-0.7015793528505394
-0.7015793528505394
-0.8302003081664099
-0.8302003081664099
-0.6625192604006164
-0.6625192604006164
-0.6625192604006164
-0.7718412942989215
-0.7718412942989215
-0.748382126348228
-0.748382126348228
-0.748382126348228
-0.6453004622496148
-0.6453004622496148
-0.7785439137134053
-0.7785439137134053
-0.7785439137134053
-0.6055469953775038
-0.6055469953775038
-0.6055469953775038
-0.7060862865947611
-0.7060862865947611
-0.7234206471494607
-0.7234206471494607
-0.7234206471494607
-0.6209167950693375
-0.6209167950693375
-0.750693374422188
-0.750693374422188
-0.750693374422188
-0.6069337442218798
-0.6069337442218798
-0.6069337442218798
-0.7365947611710324
-0.7365947611710324
-0.6906009244992295
-0.6906009244992295
-0.6906009244992295
-0.6459938366718028
-0.6459938366718028
-0.7095531587057011
-0.7095531587057011
-0.7095531587057011
-0.6372110939907549
-0.6372110939907549
-0.7264252696456086
-0.7264252696456086
-0.7264252696456086
-0.6142141756548536
-0.6142141756548536
-0.6142141756548536
-0.6723420647149461
-0.6723420647149461
-0.6873651771956857
-0.6873651771956857
-0.5676425269645609
-0.5676425269645609
-0.5676425269645609
-0.7533513097072418
-0.7533513097072418
-0.7533513097072418
-0.638020030816641
-0.638020030816641
-0.6826271186440678
-0.6826271186440678
-0.6826271186440678
-0.6094761171032357
-0.6094761171032357
-0.5371340523882896
-0.5371340523882896
-0.6658705701078582
-0.6658705701078582
-0.6658705701078582
-0.46768104776579356
-0.46768104776579356
-0.5751540832049307
-0.5751540832049307
-0.5751540832049307
-0.5360939907550076
-0.5360939907550076
-0.5360939907550076
-0.48420647149460727
-0.48420647149460727
-0.6679506933744223
-0.6679506933744223
-0.529506933744222
-0.529506933744222
-0.529506933744222
-0.6826271186440678
-0.6826271186440678
-0.6826271186440678
-0.6410246533127889
-0.6410246533127889
-0.6410246533127889
-0.6220724191063174
-0.6220724191063174
-0.6220724191063174
-0.6842449922958398
-0.6842449922958398
-0.6842449922958398
-0.5478813559322033
-0.5478813559322033
-0.7171802773497689
-0.7171802773497689
-0.7171802773497689
-0.5810477657935285
-0.5810477657935285
-0.5810477657935285
-0.6639060092449922
-0.6639060092449922
-0.6639060092449922
-0.713713405238829
-0.713713405238829
-0.1719568567026193
-0.1719568567026193
-0.1719568567026193
0.4379815100154083
0.4379815100154083
0.4808551617873653
0.4808551617873653
0.4808551617873653
0.4831664098613251
0.4831664098613251
0.4831664098613251
0.4803929121725732
0.4803929121725732
0.4803929121725732
0.31040061633281946
0.31040061633281946
0.31040061633281946
-0.5923728813559321
-0.5923728813559321
-0.5366718027734976
-0.5366718027734976
-0.5366718027734976
-0.5774653312788907
-0.5774653312788907
-0.5774653312788907
-0.6227657935285054
-0.6227657935285054
-0.6227657935285054
-0.6227657935285054
-0.5960708782742681
-0.5960708782742681
-0.6509630200308165
-0.6509630200308165
-0.6509630200308165
-0.564869029275809
-0.564869029275809
-0.6673728813559323
-0.6673728813559323
-0.6673728813559323
-0.5583975346687211
-0.5583975346687211
-0.5583975346687211
-0.5703004622496147
-0.5703004622496147
-0.5703004622496147
-0.5654468412942988
-0.5654468412942988
-0.5654468412942988
-0.5007318952234208
-0.5007318952234208
-0.5007318952234208
-0.5831278890600924
-0.5831278890600924
-0.3977657935285053
-0.3977657935285053
-0.3977657935285053
-0.45600924499229567
-0.45600924499229567
-0.45600924499229567
-0.3907164869029276
-0.3907164869029276
-0.3907164869029276
-0.32646379044684126
-0.32646379044684126
-0.32646379044684126
-0.3561633281972265
-0.3561633281972265
-0.22453775038520796
-0.22453775038520796
-0.25909090909090904
-0.25909090909090904
-0.25909090909090904
-0.18825115562403694
-0.18825115562403694
-0.18825115562403694
-0.1212249614791987
-0.1212249614791987
-0.22985362095531592
-0.22985362095531592
-0.22985362095531592
-0.12688751926040043
-0.12688751926040043
-0.262095531587057
-0.262095531587057
-0.26706471494607076
-0.26706471494607076
-0.3734976887519261
-0.3734976887519261
-0.6012711864406779
-0.6012711864406779
-0.6012711864406779
-0.5700693374422188
-0.5700693374422188
-0.7057395993836673
-0.7057395993836673
-0.7057395993836673
-0.6529275808936826
-0.6529275808936826
-0.7969183359013867
-0.7969183359013867
-0.7969183359013867
-0.8081278890600925
-0.8081278890600925
-0.8081278890600925
-0.6881741140215717
-0.6881741140215717
-0.6881741140215717
-0.8789676425269646
-0.8789676425269646
-0.6827426810477658
-0.6827426810477658
-0.7491910631741141
-0.7491910631741141
-0.7491910631741141
-0.7615562403697997
-0.7615562403697997
-0.7615562403697997
-0.7043528505392911
-0.7043528505392911
-0.7043528505392911
-0.8211864406779661
-0.8211864406779661
-0.8211864406779661
-0.5927195685670261
-0.5927195685670261
-0.5927195685670261
-0.7610939907550076
-0.7610939907550076
-0.752195685670262
-0.752195685670262
-0.752195685670262
-0.6554699537750386
-0.6554699537750386
-0.6554699537750386
-0.7407550077041603
-0.7407550077041603
-0.7407550077041603
-0.7407550077041603
-0.6285439137134052
-0.6285439137134052
-0.6285439137134052
-0.7303543913713406
-0.7303543913713406
-0.6506163328197226
-0.6506163328197226
-0.6506163328197226
-0.6761556240369799
-0.6761556240369799
-0.7141756548536209
-0.7141756548536209
-0.7141756548536209
-0.7141756548536209
-0.6041602465331279
-0.6041602465331279
-0.7291987673343605
-0.7291987673343605
-0.7291987673343605
-0.6235747303543915
-0.6235747303543915
-0.6235747303543915
-0.7064329738058552
-0.7064329738058552
-0.7064329738058552
-0.7340523882896764
-0.7340523882896764
-0.6023112480739599
-0.6023112480739599
-0.6023112480739599
-0.7439907550077041
-0.7439907550077041
-0.7439907550077041
-0.6182588597842835
-0.6182588597842835
-0.6182588597842835
-0.6182588597842835
-0.6486517719568567
-0.6486517719568567
-0.6865562403697998
-0.6865562403697998
-0.6865562403697998
-0.5567796610169492
-0.5567796610169492
-0.6176810477657936
-0.6176810477657936
-0.6176810477657936
-0.6176810477657936
-0.5026964560862865
-0.5026964560862865
-0.5026964560862865
-0.5768875192604006
-0.5768875192604006
-0.5496147919876733
-0.5496147919876733
-0.5496147919876733
-0.5677580893682588
-0.5677580893682588
-0.6496918335901387
-0.6496918335901387
-0.6496918335901387
-0.5312403697996919
-0.5312403697996919
-0.6938366718027735
-0.6938366718027735
-0.6938366718027735
-0.601502311248074
-0.601502311248074
-0.601502311248074
-0.601502311248074
-0.6134052388289677
-0.6134052388289677
-0.6134052388289677
-0.6818181818181819
-0.5906394453004622
-0.5906394453004622
-0.5906394453004622
-0.675693374422188
-0.675693374422188
-0.675693374422188
-0.5074345146379045
-0.5074345146379045
-0.5074345146379045
-0.7584360554699537
-0.7584360554699537
-0.7313944530046226
-0.7313944530046226
-0.7313944530046226
-0.28035439137134044
-0.28035439137134044
0.3076271186440678
0.3076271186440678
0.3076271186440678
0.480624036979969
0.480624036979969
0.48328197226502323
0.48328197226502323
0.4824730354391371
0.4824730354391371
0.4824730354391371
0.42804314329738036
0.42804314329738036
0.42804314329738036
-0.34530046224961497
-0.34530046224961497
-0.6208012326656395
-0.6208012326656395
-0.5083590138674884
-0.5083590138674884
-0.5083590138674884
-0.5761941448382126
-0.5761941448382126
-0.5761941448382126
-0.6424114021571647
-0.6424114021571647
-0.6424114021571647
-0.6557010785824346
-0.6557010785824346
-0.5551617873651773
-0.5551617873651773
-0.7227272727272727
-0.7227272727272727
-0.7227272727272727
-0.5468412942989214
-0.5468412942989214
-0.5468412942989214
-0.598151001540832
-0.598151001540832
-0.602657935285054
-0.602657935285054
-0.602657935285054
-0.44953775038520805
-0.44953775038520805
-0.6082049306625577
-0.6082049306625577
-0.4331278890600925
-0.4331278890600925
-0.4720724191063175
-0.4720724191063175
-0.4720724191063175
-0.44260400616332807
-0.44260400616332807
-0.44260400616332807
-0.2786209553158705
-0.2786209553158705
-0.2786209553158705
-0.4536979969183359
-0.4536979969183359
-0.22800462249614784
-0.22800462249614784
-0.2743451463790447
-0.2743451463790447
-0.2743451463790447
-0.258859784283513
-0.258859784283513
-0.258859784283513
-0.14942218798150986
-0.14942218798150986
-0.2491525423728813
-0.2491525423728813
-0.2491525423728813
-0.15034668721109412
-0.15034668721109412
-0.27919876733436055
-0.27919876733436055
-0.27919876733436055
-0.3159476117103237
-0.3159476117103237
-0.4056240369799693
-0.4056240369799693
-0.5546995377503853
-0.5546995377503853
-0.5546995377503853
-0.5311248073959939
-0.5311248073959939
-0.5311248073959939
-0.7527734976887519
-0.7527734976887519
-0.6451848998459168
-0.6451848998459168
-0.7332434514637904
-0.7332434514637904
-0.7332434514637904
-0.825115562403698
-0.825115562403698
-0.825115562403698
-0.7139445300462248
-0.7139445300462248
-0.7139445300462248
-0.8302003081664099
-0.8302003081664099
-0.676271186440678
-0.676271186440678
-0.823959938366718
-0.823959938366718
-0.823959938366718
-0.7573959938366718
-0.7573959938366718
-0.7573959938366718
-0.6981124807395993
-0.6981124807395993
-0.8062788906009245
-0.8062788906009245
-0.8062788906009245
-0.6265793528505392
-0.6265793528505392
-0.750693374422188
-0.750693374422188
-0.6847072419106317
-0.6847072419106317
-0.6847072419106317
-0.6609013867488445
-0.6609013867488445
-0.6609013867488445
-0.714291217257319
-0.714291217257319
-0.714291217257319
-0.6151386748844375
-0.6151386748844375
-0.7266563944530047
-0.7266563944530047
-0.7266563944530047
-0.6212634822804315
-0.6212634822804315
-0.6728043143297382
-0.6728043143297382
-0.711055469953775
-0.711055469953775
-0.711055469953775
-0.5442989214175655
-0.5442989214175655
-0.7458397534668721
-0.7458397534668721
-0.7458397534668721
-0.6373266563944531
-0.6373266563944531
-0.6373266563944531
-0.6939522342064715
-0.6939522342064715
-0.7067796610169492
-0.7067796610169492
-0.6062403697996919
-0.6062403697996919
-0.6062403697996919
-0.7221494607087827
-0.7221494607087827
-0.7221494607087827
-0.52904468412943
-0.52904468412943
-0.6184899845916795
-0.6184899845916795
-0.5366718027734976
-0.5366718027734976
-0.5147149460708782
-0.5147149460708782
-0.5147149460708782
-0.6477272727272727
-0.6477272727272727
-0.6477272727272727
-0.48189522342064706
-0.48189522342064706
-0.48189522342064706
-0.5927195685670261
-0.5927195685670261
-0.5510015408320494
-0.5510015408320494
-0.5510015408320494
-0.6489984591679507
-0.6489984591679507
-0.712326656394453
-0.712326656394453
-0.712326656394453
-0.5451078582434515
-0.5451078582434515
-0.7034283513097073
-0.7034283513097073
-0.7034283513097073
-0.6035824345146379
-0.6035824345146379
-0.6061248073959937
-0.6061248073959937
-0.6806625577812019
-0.6806625577812019
-0.6806625577812019
-0.6144453004622497
-0.6144453004622497
-0.7732280431432974
-0.7732280431432974
-0.7732280431432974
-0.4454930662557781
-0.4454930662557781
-0.4454930662557781
0.23251155624036968
0.23251155624036968
0.23251155624036968
0.4792372881355931
0.4792372881355931
0.483628659476117
0.483628659476117
0.483628659476117
0.4814329738058549
0.4814329738058549
0.4814329738058549
0.46525423728813564
0.46525423728813564
-0.23909861325115545
-0.23909861325115545
-0.23909861325115545
-0.6869029275808937
-0.6869029275808937
-0.41995377503852094
-0.41995377503852094
-0.6433359013867489
-0.6433359013867489
-0.6433359013867489
-0.5734206471494607
-0.5734206471494607
-0.717642526964561
-0.717642526964561
-0.717642526964561
-0.5763097072419106
-0.5763097072419106
-0.5763097072419106
-0.6156009244992297
-0.6156009244992297
-0.6156009244992297
-0.6569722650231125
-0.6569722650231125
-0.4862865947611712
-0.4862865947611712
-0.6587057010785824
-0.6587057010785824
-0.6587057010785824
-0.46883667180277344
-0.46883667180277344
-0.46883667180277344
-0.5133281972265022
-0.5133281972265022
-0.5367873651771957
-0.5367873651771957
-0.3627503852080123
-0.3627503852080123
-0.3627503852080123
-0.48975346687211085
-0.48975346687211085
-0.48975346687211085
-0.32842835130970727
-0.32842835130970727
-0.3211479198767335
-0.3211479198767335
-0.3211479198767335
-0.32727272727272716
-0.32727272727272716
-0.19102465331278884
-0.19102465331278884
-0.28832819722650216
-0.28832819722650216
-0.11232665639445294
-0.11232665639445294
-0.11232665639445294
-0.22338212634822807
-0.22338212634822807
-0.22338212634822807
-0.19345146379044698
-0.19345146379044698
-0.19345146379044698
-0.14607087827426812
-0.14607087827426812
-0.14607087827426812
-0.3770801232665639
-0.3770801232665639
-0.2966486902927581
-0.2966486902927581
-0.5432588597842836
-0.5432588597842836
-0.5432588597842836
-0.5897149460708783
-0.5897149460708783
-0.6251926040061634
-0.6251926040061634
-0.6251926040061634
-0.7921802773497688
-0.7921802773497688
-0.7921802773497688
-0.6651771956856702
-0.6651771956856702
-0.8081278890600925
-0.8081278890600925
-0.7038906009244992
-0.7038906009244992
-0.7995762711864407
-0.7995762711864407
-0.7995762711864407
-0.7995762711864407
-0.7732280431432974
-0.7732280431432974
-0.7732280431432974
-0.6909476117103237
-0.6909476117103237
-0.8088212634822805
-0.8088212634822805
-0.6477272727272727
-0.6477272727272727
-0.786517719568567
-0.786517719568567
-0.786517719568567
-0.6981124807395993
-0.6981124807395993
-0.6981124807395993
-0.6372110939907549
-0.6372110939907549
-0.7942604006163327
-0.7942604006163327
-0.7942604006163327
-0.6410246533127889
-0.6410246533127889
-0.6896764252696457
-0.6896764252696457
-0.6896764252696457
-0.640215716486903
-0.640215716486903
-0.6946456086286595
-0.6946456086286595
-0.6946456086286595
-0.7013482280431433
-0.7013482280431433
-0.7013482280431433
-0.5870570107858244
-0.5870570107858244
-0.7298921417565486
-0.7298921417565486
-0.59711093990755
-0.59711093990755
-0.708744221879815
-0.708744221879815
-0.708744221879815
-0.708744221879815
-0.6975346687211094
-0.6975346687211094
-0.6975346687211094
-0.5842835130970724
-0.5842835130970724
-0.751386748844376
-0.751386748844376
-0.6073959938366718
-0.6073959938366718
-0.6432203389830509
-0.6432203389830509
-0.6432203389830509
-0.6501540832049306
-0.6501540832049306
-0.5087057010785825
-0.5087057010785825
-0.5087057010785825
-0.6345531587057011
-0.6345531587057011
-0.6345531587057011
-0.4980739599383668
-0.4980739599383668
-0.5804699537750384
-0.5804699537750384
-0.5514637904468414
-0.5514637904468414
-0.5070878274268105
-0.5070878274268105
-0.5070878274268105
-0.5070878274268105
-0.6435670261941449
-0.6435670261941449
-0.6435670261941449
-0.5492681047765794
-0.5492681047765794
-0.669106317411402
-0.669106317411402
-0.6325885978428352
-0.6325885978428352
-0.6325885978428352
-0.6491140215716487
-0.6491140215716487
-0.6491140215716487
-0.7065485362095532
-0.7065485362095532
-0.5816255778120185
-0.5816255778120185
-0.6842449922958398
-0.6842449922958398
-0.6842449922958398
-0.6060092449922959
-0.6060092449922959
-0.7243451463790447
-0.7243451463790447
-0.6882896764252697
-0.6882896764252697
-0.6882896764252697
-0.0046224961479197635
-0.0046224961479197635
-0.0046224961479197635
0.47172573189522327
0.47172573189522327
0.47172573189522327
0.48177966101694913
0.48177966101694913
0.48385978428351306
0.48385978428351306
0.48385978428351306
0.47946841294298914
0.47946841294298914
0.13636363636363624
0.13636363636363624
0.13636363636363624
-0.7291987673343605
-0.7291987673343605
-0.42446070878274256
-0.42446070878274256
-0.5950308166409861
-0.5950308166409861
-0.5950308166409861
-0.6545454545454545
-0.6545454545454545
-0.6169876733436055
-0.6169876733436055
-0.6169876733436055
-0.6940677966101696
-0.6940677966101696
-0.5550462249614792
-0.5550462249614792
-0.5550462249614792
-0.6710708782742681
-0.6710708782742681
-0.6710708782742681
-0.5521571648690292
-0.5521571648690292
-0.5460323574730355
-0.5460323574730355
-0.5863636363636363
-0.5863636363636363
-0.4572804314329737
-0.4572804314329737
-0.4572804314329737
-0.4572804314329737
-0.5551617873651773
-0.5551617873651773
-0.5551617873651773
-0.409668721109399
-0.409668721109399
-0.4016949152542373
-0.4016949152542373
-0.4016949152542373
-0.4176425269645607
-0.4176425269645607
-0.3005778120184899
-0.3005778120184899
-0.3005778120184899
-0.3414869029275809
-0.3414869029275809
-0.16398305084745757
-0.16398305084745757
-0.25354391371340523
-0.25354391371340523
-0.25354391371340523
-0.1758859784283513
-0.1758859784283513
-0.1758859784283513
-0.09268104776579356
-0.09268104776579356
-0.20200308166409853
-0.20200308166409853
-0.10851309707241907
-0.10851309707241907
-0.10851309707241907
-0.2676425269645608
-0.2676425269645608
-0.2676425269645608
-0.2843990755007706
-0.2843990755007706
-0.2843990755007706
-0.4101309707241909
-0.4101309707241909
-0.6188366718027736
-0.6188366718027736
-0.6188366718027736
-0.5286979969183359
-0.5286979969183359
-0.5286979969183359
-0.7327812018489984
-0.7327812018489984
-0.7055084745762712
-0.7055084745762712
-0.7058551617873652
-0.7058551617873652
-0.7058551617873652
-0.8464946070878274
-0.8464946070878274
-0.8464946070878274
-0.7082819722650231
-0.7082819722650231
-0.8148305084745763
-0.8148305084745763
-0.7263097072419106
-0.7263097072419106
-0.7263097072419106
-0.7558936825885978
-0.7558936825885978
-0.7558936825885978
-0.751040061633282
-0.751040061633282
-0.751040061633282
-0.6695685670261942
-0.6695685670261942
-0.7764637904468413
-0.7764637904468413
-0.6411402157164869
-0.6411402157164869
-0.6411402157164869
-0.7224961479198766
-0.7224961479198766
-0.7224961479198766
-0.6736132511556241
-0.6736132511556241
-0.6465716486902928
-0.6465716486902928
-0.6465716486902928
-0.7647919876733437
-0.7647919876733437
-0.6131741140215716
-0.6131741140215716
-0.6131741140215716
-0.7274653312788906
-0.7274653312788906
-0.6597457627118644
-0.6597457627118644
-0.6582434514637905
-0.6582434514637905
-0.6582434514637905
-0.7256163328197227
-0.7256163328197227
-0.7256163328197227
-0.6013867488443759
-0.6013867488443759
-0.7343990755007703
-0.7343990755007703
-0.6333975346687211
-0.6333975346687211
-0.6333975346687211
-0.6615947611710322
-0.6615947611710322
-0.6615947611710322
-0.6996147919876733
-0.6996147919876733
-0.6009244992295839
-0.6009244992295839
-0.6009244992295839
-0.7129044684129429
-0.7129044684129429
-0.5329738058551617
-0.5329738058551617
-0.5329738058551617
-0.5951463790446841
-0.5951463790446841
-0.5820878274268104
-0.5820878274268104
-0.47681047765793516
-0.47681047765793516
-0.47681047765793516
-0.6173343605546995
-0.6173343605546995
-0.6173343605546995
-0.4604006163328198
-0.5847457627118644
-0.5847457627118644
-0.5847457627118644
-0.59942218798151
-0.59942218798151
-0.59942218798151
-0.5701848998459169
-0.5701848998459169
-0.5701848998459169
-0.5701848998459169
-0.6946456086286595
-0.6946456086286595
-0.5757318952234206
-0.5757318952234206
-0.5757318952234206
-0.7118644067796609
-0.7118644067796609
-0.7118644067796609
-0.6250770416024654
-0.6250770416024654
-0.6313174114021571
-0.6313174114021571
-0.6313174114021571
-0.6313174114021571
-0.6856317411402156
-0.6856317411402156
-0.5728428351309708
-0.5728428351309708
-0.5728428351309708
-0.7716101694915254
-0.7716101694915254
-0.7716101694915254
-0.528235747303544
-0.528235747303544
0.14133281972265044
0.14133281972265044
0.14133281972265044
0.47900616332819723
0.47900616332819723
0.47900616332819723
0.4828197226502311
0.4828197226502311
0.4828197226502311
0.48224191063174127
0.48224191063174127
0.47403697996918326
0.47403697996918326
-0.14537750385208015
-0.14537750385208015
-0.7264252696456086
-0.7264252696456086
-0.7264252696456086
-0.4293143297380584
-0.4293143297380584
-0.4293143297380584
-0.6783513097072419
-0.6783513097072419
-0.6783513097072419
-0.6136363636363635
-0.6136363636363635
-0.6565100154083205
-0.6565100154083205
-0.6300462249614793
-0.6300462249614793
-0.6300462249614793
-0.5974576271186441
-0.5974576271186441
-0.5974576271186441
-0.6553543913713404
-0.6553543913713404
-0.5393297380585516
-0.5393297380585516
-0.5393297380585516
-0.6109784283513097
-0.6109784283513097
-0.6109784283513097
-0.5061633281972264
-0.5061633281972264
-0.5469568567026194
-0.5469568567026194
-0.5422187981510016
-0.5422187981510016
-0.5422187981510016
-0.39603235747303556
-0.39603235747303556
-0.39603235747303556
-0.5060477657935285
-0.5060477657935285
-0.33906009244992297
-0.33906009244992297
-0.33906009244992297
-0.3537365177195686
-0.3537365177195686
-0.3273882896764253
-0.3273882896764253
-0.18836671802773486
-0.18836671802773486
-0.18836671802773486
-0.2879815100154084
-0.2879815100154084
-0.2879815100154084
-0.12249614791987673
-0.12249614791987673
-0.19818952234206466
-0.19818952234206466
-0.19818952234206466
-0.18073959938366713
-0.18073959938366713
-0.14237288135593218
-0.14237288135593218
-0.3396379044684128
-0.3396379044684128
-0.3396379044684128
-0.3119029275808938
-0.3119029275808938
-0.3119029275808938
-0.52615562403698
-0.52615562403698
-0.52615562403698
-0.5781587057010786
-0.5781587057010786
-0.6551232665639446
-0.6551232665639446
-0.7615562403697997
-0.7615562403697997
-0.676386748844376
-0.676386748844376
-0.676386748844376
-0.8429121725731895
-0.8429121725731895
-0.8429121725731895
-0.7435285053929122
-0.7435285053929122
-0.7651386748844375
-0.7651386748844375
-0.7651386748844375
-0.8102080123266564
-0.8102080123266564
-0.6921032357473035
-0.6921032357473035
-0.8284668721109398
-0.8284668721109398
-0.8284668721109398
-0.6845916795069337
-0.6845916795069337
-0.6845916795069337
-0.7445685670261941
-0.7445685670261941
-0.7445685670261941
-0.7535824345146379
-0.7535824345146379
-0.6529275808936826
-0.6529275808936826
-0.7741525423728814
-0.7741525423728814
-0.6398690292758089
-0.6398690292758089
-0.6398690292758089
-0.6398690292758089
-0.7327812018489984
-0.7327812018489984
-0.6795069337442219
-0.6795069337442219
-0.6795069337442219
-0.6372110939907549
-0.6372110939907549
-0.7497688751926039
-0.7497688751926039
-0.6076271186440678
-0.6076271186440678
-0.6076271186440678
-0.7154468412942989
-0.7154468412942989
-0.6702619414483821
-0.6702619414483821
-0.6702619414483821
-0.6704930662557782
-0.6704930662557782
-0.6704930662557782
-0.7303543913713406
-0.7303543913713406
-0.6162942989214175
-0.6162942989214175
-0.7438751926040061
-0.7438751926040061
-0.7438751926040061
-0.6242681047765792
-0.6242681047765792
-0.6242681047765792
-0.6589368258859784
-0.6589368258859784
-0.6589368258859784
-0.6573189522342064
-0.6573189522342064
-0.5292758089368259
-0.5292758089368259
-0.6440292758089368
-0.6440292758089368
-0.6440292758089368
-0.492526964560863
-0.492526964560863
-0.492526964560863
-0.596764252696456
-0.596764252696456
-0.564522342064715
-0.564522342064715
-0.5085901386748845
-0.5085901386748845
-0.5085901386748845
-0.6652927580893684
-0.6652927580893684
-0.5580508474576271
-0.5580508474576271
-0.5580508474576271
-0.6723420647149461
-0.6723420647149461
-0.6508474576271187
-0.6508474576271187
-0.6508474576271187
-0.6162942989214175
-0.6162942989214175
-0.6162942989214175
-0.7033127889060091
-0.7033127889060091
-0.5714560862865947
-0.5714560862865947
-0.6849383667180278
-0.6849383667180278
-0.6062403697996919
-0.6062403697996919
-0.6062403697996919
-0.6062403697996919
-0.6885208012326656
-0.6885208012326656
-0.7078197226502312
-0.7078197226502312
-0.06633281972265026
-0.06633281972265026
-0.06633281972265026
0.4595916795069339
0.4595916795069339
0.48189522342064706
0.48189522342064706
0.48189522342064706
0.48351309707241885
0.48351309707241885
0.480624036979969
0.480624036979969
0.480624036979969
0.22453775038520796
0.22453775038520796
0.22453775038520796
-0.6509630200308165
-0.6509630200308165
-0.49957627118644066
-0.49957627118644066
-0.5522727272727272
-0.5522727272727272
-0.5522727272727272
-0.6652927580893684
-0.6652927580893684
-0.6652927580893684
-0.5840523882896764
-0.5840523882896764
-0.5840523882896764
-0.6979969183359014
-0.6979969183359014
-0.5505392912172573
-0.5505392912172573
-0.6657550077041603
-0.6657550077041603
-0.5891371340523883
-0.5891371340523883
-0.5891371340523883
-0.5891371340523883
-0.5528505392912173
-0.5528505392912173
-0.6318952234206472
-0.6318952234206472
-0.46051617873651773
-0.46051617873651773
-0.46051617873651773
-0.564175654853621
-0.564175654853621
-0.4434129429892142
-0.4434129429892142
-0.4434129429892142
-0.4246918335901386
-0.4246918335901386
-0.45670261941448387
-0.45670261941448387
-0.45670261941448387
-0.3018489984591679
-0.3018489984591679
-0.3018489984591679
-0.3833204930662557
-0.3833204930662557
-0.3833204930662557
-0.22453775038520796
-0.22453775038520796
-0.24880585516178733
-0.24880585516178733
-0.23343605546995372
-0.23343605546995372
-0.23343605546995372
-0.1392526964560863
-0.1392526964560863
-0.1392526964560863
-0.26302003081664105
-0.26302003081664105
-0.15254237288135597
-0.15254237288135597
-0.28751926040061626
-0.28751926040061626
-0.28751926040061626
-0.35974576271186454
-0.35974576271186454
-0.42515408320493053
-0.42515408320493053
-0.6231124807395995
-0.6231124807395995
-0.6231124807395995
-0.5637134052388291
-0.5637134052388291
-0.5637134052388291
-0.5637134052388291
-0.7439907550077041
-0.7439907550077041
-0.7175269645608628
-0.7251540832049308
-0.7251540832049308
-0.7251540832049308
-0.8135593220338984
-0.8135593220338984
-0.8135593220338984
-0.6817026194144838
-0.6817026194144838
-0.6817026194144838
-0.8134437596302002
-0.8134437596302002
-0.7108243451463789
-0.7108243451463789
-0.7108243451463789
-0.7392526964560863
-0.7392526964560863
-0.7646764252696456
-0.7646764252696456
-0.7646764252696456
-0.6639060092449922
-0.6639060092449922
-0.6639060092449922
-0.7806240369799692
-0.7806240369799692
-0.7806240369799692
-0.6318952234206472
-0.6318952234206472
-0.7132511556240371
-0.7132511556240371
-0.6975346687211094
-0.6975346687211094
-0.6975346687211094
-0.6269260400616332
-0.6269260400616332
-0.6269260400616332
-0.747342064714946
-0.747342064714946
-0.5914483821263483
-0.5914483821263483
-0.5914483821263483
-0.6929121725731895
-0.6929121725731895
-0.6929121725731895
-0.6518875192604007
-0.6518875192604007
-0.6192989214175655
-0.6192989214175655
-0.714291217257319
-0.714291217257319
-0.5834745762711865
-0.5834745762711865
-0.5834745762711865
-0.7101309707241912
-0.7101309707241912
-0.7101309707241912
-0.6280816640986132
-0.6280816640986132
-0.6280816640986132
-0.6476117103235748
-0.6476117103235748
-0.7085130970724192
-0.7085130970724192
-0.5838212634822804
-0.5838212634822804
-0.5838212634822804
-0.7049306625577811
-0.7049306625577811
-0.7049306625577811
-0.5520416024653314
-0.5520416024653314
-0.5675269645608629
-0.5675269645608629
-0.5675269645608629
-0.5856702619414484
-0.5856702619414484
-0.47669491525423746
-0.47669491525423746
-0.6079738058551618
-0.6079738058551618
-0.46063174114021566
-0.46063174114021566
-0.46063174114021566
-0.5722650231124808
-0.5722650231124808
-0.5722650231124808
-0.5722650231124808
-0.5944530046224961
-0.5944530046224961
-0.5400231124807395
-0.5400231124807395
-0.6937211093990754
-0.6937211093990754
-0.5742295839753466
-0.5742295839753466
-0.5742295839753466
-0.5742295839753466
-0.673382126348228
-0.673382126348228
-0.673382126348228
-0.6191833590138676
-0.6191833590138676
-0.6013867488443759
-0.6013867488443759
-0.6013867488443759
-0.67904468412943
-0.67904468412943
-0.67904468412943
-0.562557781201849
-0.562557781201849
-0.7721879815100154
-0.7721879815100154
-0.7721879815100154
-0.5783898305084745
-0.5783898305084745
-0.5783898305084745
0.059514637904468426
0.059514637904468426
0.059514637904468426
0.4770416024653312
0.4770416024653312
0.4770416024653312
0.48224191063174127
0.48224191063174127
0.48224191063174127
0.48224191063174127
0.48224191063174127
0.47727272727272707
0.47727272727272707
0.47727272727272707
0.47727272727272707
0.012134052388289795
0.012134052388289795
0.012134052388289795
-0.6930277349768876
-0.6930277349768876
-0.6930277349768876
-0.4313944530046223
-0.4313944530046223
-0.6181432973805856
-0.6181432973805856
-0.6181432973805856
-0.6023112480739599
-0.6023112480739599
-0.6023112480739599
-0.6313174114021571
-0.6313174114021571
-0.6313174114021571
-0.6172187981510016
-0.6172187981510016
-0.5661402157164869
-0.5661402157164869
-0.5661402157164869
-0.6520030816640985
-0.6520030816640985
-0.6520030816640985
-0.5095146379044684
-0.5095146379044684
-0.5095146379044684
-0.5956086286594762
-0.5956086286594762
-0.5178351309707243
-0.5178351309707243
-0.5178351309707243
-0.48975346687211085
-0.48975346687211085
-0.48975346687211085
-0.48975346687211085
-0.5314714946070878
-0.5314714946070878
-0.37095531587057007
-0.37095531587057007
-0.46063174114021566
-0.46063174114021566
-0.336055469953775
-0.336055469953775
-0.336055469953775
-0.3254237288135593
-0.3254237288135593
-0.3254237288135593
-0.3298151001540832
-0.3298151001540832
-0.3298151001540832
-0.17137904468412946
-0.17137904468412946
-0.26036209553158707
-0.26036209553158707
-0.26036209553158707
-0.11625577812018495
-0.11625577812018495
-0.16282742681047768
-0.16282742681047768
-0.18039291217257314
-0.18039291217257314
-0.18039291217257314
-0.12342064714946077
-0.12342064714946077
-0.12342064714946077
-0.31733436055469966
-0.31733436055469966
-0.2852080123266565
-0.2852080123266565
-0.2852080123266565
-0.48894453004622496
-0.48894453004622496
-0.5698382126348227
-0.5698382126348227
-0.5698382126348227
-0.5949152542372881
-0.5949152542372881
-0.5949152542372881
-0.7472265023112481
-0.7472265023112481
-0.6721109399075501
-0.6721109399075501
-0.6721109399075501
-0.8036209553158705
-0.8036209553158705
-0.7301232665639446
-0.7301232665639446
-0.7405238828967643
-0.7405238828967643
-0.7405238828967643
-0.8047765793528505
-0.8047765793528505
-0.676386748844376
-0.676386748844376
-0.676386748844376
-0.8022342064714946
-0.8022342064714946
-0.8022342064714946
-0.6754622496147921
-0.7214560862865946
-0.7214560862865946
-0.7539291217257319
-0.7539291217257319
-0.7539291217257319
-0.6359399075500771
-0.6359399075500771
-0.6359399075500771
-0.7547380585516179
-0.7547380585516179
-0.7547380585516179
-0.6312018489984591
-0.6312018489984591
-0.7081664098613251
-0.7081664098613251
-0.7081664098613251
-0.6872496147919875
-0.6872496147919875
-0.6270416024653312
-0.6270416024653312
-0.6270416024653312
-0.7453775038520802
-0.7453775038520802
-0.7453775038520802
-0.5987288135593221
-0.5987288135593221
-0.7079352850539291
-0.7079352850539291
-0.6680662557781201
-0.6680662557781201
-0.6680662557781201
-0.6318952234206472
-0.6318952234206472
-0.7327812018489984
-0.7327812018489984
-0.7327812018489984
-0.6150231124807397
-0.6150231124807397
-0.7265408320493066
-0.7265408320493066
-0.7265408320493066
-0.636055469953775
-0.636055469953775
-0.636055469953775
-0.6540832049306626
-0.6540832049306626
-0.7056240369799691
-0.7056240369799691
-0.7056240369799691
-0.5934129429892141
-0.5934129429892141
-0.5934129429892141
-0.714406779661017
-0.714406779661017
-0.714406779661017
-0.5582819722650232
-0.5582819722650232
-0.5582819722650232
-0.5849768875192605
-0.5849768875192605
-0.5849768875192605
-0.596764252696456
-0.596764252696456
-0.596764252696456
-0.4828197226502311
-0.4828197226502311
-0.4828197226502311
-0.6114406779661017
-0.6114406779661017
-0.6114406779661017
-0.484899845916795
-0.484899845916795
-0.5727272727272728
-0.5727272727272728
-0.5727272727272728
-0.5727272727272728
-0.5860169491525424
-0.5860169491525424
-0.5860169491525424
-0.5666024653312789
-0.5666024653312789
-0.6880585516178737
-0.6880585516178737
-0.5735362095531586
-0.5735362095531586
-0.5735362095531586
-0.5735362095531586
-0.6897919876733436
-0.6897919876733436
-0.6897919876733436
-0.6346687211093991
-0.6346687211093991
-0.6346687211093991
-0.6122496147919877
-0.6122496147919877
-0.6122496147919877
-0.6841294298921416
-0.6841294298921416
-0.556895223420647
-0.556895223420647
-0.556895223420647
-0.747342064714946
-0.747342064714946
-0.747342064714946
-0.6548921417565485
-0.6548921417565485
-0.6548921417565485
-0.19194915254237288
-0.19194915254237288
-0.19194915254237288
0.42284283513097076
0.42284283513097076
0.42284283513097076
0.4816640986132512
0.4816640986132512
0.48385978428351306
0.48385978428351306
0.48385978428351306
0.4799306625577813
0.4799306625577813
0.4799306625577813
0.23909861325115545
0.23909861325115545
0.23909861325115545
-0.640677966101695
-0.640677966101695
-0.640677966101695
-0.5076656394453005
-0.5076656394453005
-0.5076656394453005
-0.5497303543913714
-0.5497303543913714
-0.6097072419106317
-0.6097072419106317
-0.6506163328197226
-0.6506163328197226
-0.6506163328197226
-0.6506163328197226
-0.6065870570107857
-0.6065870570107857
-0.5906394453004622
-0.5906394453004622
-0.6600924499229583
-0.6600924499229583
-0.6600924499229583
-0.5109013867488444
-0.5109013867488444
-0.6232280431432973
-0.6232280431432973
-0.6232280431432973
-0.5263867488443761
-0.5263867488443761
-0.5060477657935285
-0.5060477657935285
-0.5060477657935285
-0.5434899845916796
-0.5434899845916796
-0.5434899845916796
-0.3989214175654854
-0.3989214175654854
-0.4906779661016949
-0.4906779661016949
-0.3584745762711865
-0.3584745762711865
-0.3584745762711865
-0.35396764252696444
-0.35396764252696444
-0.35396764252696444
-0.33825115562403707
-0.33825115562403707
-0.33825115562403707
-0.19010015408320502
-0.19010015408320502
-0.2833590138674884
-0.2833590138674884
-0.12700308166409857
-0.12700308166409857
-0.12700308166409857
-0.1801617873651773
-0.1801617873651773
-0.1801617873651773
-0.17207241910631743
-0.17207241910631743
-0.11267334360554693
-0.11267334360554693
-0.29607087827426826
-0.29607087827426826
-0.29607087827426826
-0.2553929121725731
-0.2553929121725731
-0.4504622496147921
-0.4504622496147921
-0.522342064714946
-0.522342064714946
-0.522342064714946
-0.5841679506933743
-0.5841679506933743
-0.5841679506933743
-0.747804314329738
-0.747804314329738
-0.747804314329738
-0.6486517719568567
-0.6486517719568567
-0.8015408320493066
-0.7325500770416025
-0.7325500770416025
-0.7325500770416025
-0.7423728813559322
-0.7423728813559322
-0.7423728813559322
-0.8148305084745763
-0.8148305084745763
-0.6838983050847458
-0.6838983050847458
-0.6838983050847458
-0.8109013867488444
-0.8109013867488444
-0.6882896764252697
-0.6882896764252697
-0.6882896764252697
-0.7253852080123266
-0.7253852080123266
-0.7253852080123266
-0.7607473035439137
-0.7607473035439137
-0.6437981510015409
-0.6437981510015409
-0.6437981510015409
-0.7750770416024653
-0.7750770416024653
-0.6435670261941449
-0.6435670261941449
-0.6435670261941449
-0.7151001540832049
-0.7151001540832049
-0.6955701078582435
-0.6955701078582435
-0.636171032357473
-0.636171032357473
-0.636171032357473
-0.636171032357473
-0.7408705701078582
-0.7408705701078582
-0.7408705701078582
-0.6085516178736519
-0.6085516178736519
-0.7209938366718027
-0.7209938366718027
-0.6649460708782742
-0.6649460708782742
-0.6510785824345147
-0.6510785824345147
-0.6510785824345147
-0.751386748844376
-0.751386748844376
-0.751386748844376
-0.6048536209553159
-0.6048536209553159
-0.7368258859784285
-0.7368258859784285
-0.7368258859784285
-0.6517719568567026
-0.6517719568567026
-0.6517719568567026
-0.6674884437596301
-0.6674884437596301
-0.6674884437596301
-0.7169491525423729
-0.7169491525423729
-0.5884437596302002
-0.5884437596302002
-0.5884437596302002
-0.5884437596302002
-0.7260785824345146
-0.7260785824345146
-0.7260785824345146
-0.6250770416024654
-0.6250770416024654
-0.6250770416024654
-0.6639060092449922
-0.6639060092449922
-0.6515408320493066
-0.6515408320493066
-0.5292758089368259
-0.5292758089368259
-0.5292758089368259
-0.5292758089368259
-0.636402157164869
-0.636402157164869
-0.636402157164869
-0.5001540832049307
-0.5001540832049307
-0.563482280431433
-0.563482280431433
-0.563482280431433
-0.5347072419106318
-0.5347072419106318
-0.5021186440677966
-0.5021186440677966
-0.5021186440677966
-0.6194144838212634
-0.6194144838212634
-0.5243066255778119
-0.5243066255778119
-0.5243066255778119
-0.6529275808936826
-0.6529275808936826
-0.6529275808936826
-0.6529275808936826
-0.6064714946070879
-0.6064714946070879
-0.6238058551617873
-0.6238058551617873
-0.6238058551617873
-0.6894453004622496
-0.6894453004622496
-0.5623266563944529
-0.5623266563944529
-0.5623266563944529
-0.5623266563944529
-0.6884052388289676
-0.6884052388289676
-0.6884052388289676
-0.5941063174114022
-0.5941063174114022
-0.638020030816641
-0.638020030816641
-0.638020030816641
-0.7573959938366718
-0.7573959938366718
-0.44179506933744217
-0.44179506933744217
-0.44179506933744217
0.1791217257318951
0.1791217257318951
0.1791217257318951
0.47946841294298914
0.47946841294298914
0.47946841294298914
0.48270416024653295
0.48270416024653295
0.48270416024653295
0.4820107858243452
0.4820107858243452
0.4820107858243452
0.45820493066255774
0.45820493066255774
-0.2546995377503851
-0.2546995377503851
-0.2546995377503851
-0.6440292758089368
-0.6440292758089368
-0.6440292758089368
-0.6440292758089368
-0.48859784283513097
-0.48859784283513097
-0.48859784283513097
-0.6060092449922959
-0.6060092449922959
-0.6060092449922959
-0.6243836671802774
-0.6243836671802774
-0.6592835130970724
-0.6592835130970724
-0.6592835130970724
-0.560824345146379
-0.560824345146379
-0.560824345146379
-0.673035439137134
-0.673035439137134
-0.673035439137134
-0.5731895223420647
-0.5731895223420647
-0.5698382126348227
-0.5698382126348227
-0.5698382126348227
-0.5698382126348227
-0.6295839753466872
-0.6295839753466872
-0.6295839753466872
-0.4595916795069339
-0.5782742681047766
-0.5782742681047766
-0.5782742681047766
-0.4446841294298922
-0.4446841294298922
-0.4446841294298922
-0.46328967642526964
-0.46328967642526964
-0.46328967642526964
-0.46328967642526964
-0.4628274268104777
-0.4628274268104777
-0.3129429892141755
-0.3129429892141755
-0.3129429892141755
-0.408050847457627
-0.408050847457627
-0.2341294298921417
-0.2341294298921417
-0.2341294298921417
-0.25550847457627124
-0.25550847457627124
-0.25550847457627124
-0.23320493066255765
-0.23320493066255765
-0.23320493066255765
-0.13127889060092457
-0.13127889060092457
-0.23077812018489974
-0.23077812018489974
-0.23077812018489974
-0.10862865947611722
-0.10862865947611722
-0.10862865947611722
-0.23066255778120182
-0.23066255778120182
-0.23066255778120182
-0.26614021571648694
-0.26614021571648694
-0.3296995377503853
-0.3296995377503853
-0.3296995377503853
-0.3296995377503853
-0.5436055469953774
-0.5436055469953774
-0.5436055469953774
-0.5061633281972264
-0.5061633281972264
-0.6969568567026194
-0.6969568567026194
-0.6758089368258859
-0.6758089368258859
-0.6758089368258859
-0.6758089368258859
-0.7316255778120184
-0.7316255778120184
-0.7316255778120184
-0.7978428351309708
-0.7978428351309708
-0.7978428351309708
-0.6993836671802773
-0.6993836671802773
-0.6993836671802773
-0.8342449922958398
-0.8342449922958398
-0.7151001540832049
-0.7151001540832049
-0.7151001540832049
-0.7668721109399076
-0.7668721109399076
-0.7668721109399076
-0.784322033898305
-0.784322033898305
-0.67442218798151
-0.67442218798151
-0.67442218798151
-0.7969183359013867
-0.7969183359013867
-0.7969183359013867
-0.7969183359013867
-0.6500385208012327
-0.6500385208012327
-0.7390215716486903
-0.7390215716486903
-0.7390215716486903
-0.7065485362095532
-0.7065485362095532
-0.6313174114021571
-0.6313174114021571
-0.6313174114021571
-0.6313174114021571
-0.751964560862866
-0.751964560862866
-0.751964560862866
-0.6265793528505392
-0.6265793528505392
-0.6265793528505392
-0.7237673343605546
-0.7237673343605546
-0.6584745762711863
-0.6584745762711863
-0.6584745762711863
-0.6488828967642526
-0.6488828967642526
-0.6488828967642526
-0.7234206471494607
-0.7234206471494607
-0.7234206471494607
-0.5952619414483822
-0.5952619414483822
-0.7146379044684129
-0.7146379044684129
-0.7146379044684129
-0.636171032357473
-0.636171032357473
-0.636171032357473
-0.677426810477658
-0.677426810477658
-0.677426810477658
-0.7105932203389831
-0.7105932203389831
-0.6012711864406779
-0.6012711864406779
-0.6012711864406779
-0.6012711864406779
-0.7480354391371341
-0.7480354391371341
-0.7480354391371341
-0.6057781201848998
-0.6057781201848998
-0.6057781201848998
-0.670724191063174
-0.670724191063174
-0.6738443759630202
-0.6738443759630202
-0.5582819722650232
-0.5582819722650232
-0.5582819722650232
-0.5582819722650232
-0.6426425269645608
-0.6426425269645608
-0.6426425269645608
-0.5072033898305086
-0.5072033898305086
-0.5760785824345147
-0.5760785824345147
-0.5381741140215717
-0.5381741140215717
-0.5381741140215717
-0.4914869029275808
-0.4914869029275808
-0.59711093990755
-0.59711093990755
-0.59711093990755
-0.5045454545454544
-0.5045454545454544
-0.5045454545454544
-0.6649460708782742
-0.6649460708782742
-0.6649460708782742
-0.5854391371340524
-0.5854391371340524
-0.5854391371340524
-0.6203389830508474
-0.6203389830508474
-0.6869029275808937
-0.6869029275808937
-0.6869029275808937
-0.5555084745762712
-0.5555084745762712
-0.5555084745762712
-0.6890986132511556
-0.6890986132511556
-0.6890986132511556
-0.6890986132511556
-0.5928351309707242
-0.5928351309707242
-0.6258859784283513
-0.6258859784283513
-0.6258859784283513
-0.7030816640986133
-0.7030816640986133
-0.6140986132511556
-0.6140986132511556
-0.6140986132511556
-0.6140986132511556
-0.27561633281972275
-0.27561633281972275
-0.27561633281972275
0.44687981510015407
0.44687981510015407
0.48224191063174127
0.48224191063174127
0.4833975346687214
0.4833975346687214
0.4833975346687214
0.4803929121725732
0.4803929121725732
0.25781972265023123
0.25781972265023123
0.25781972265023123
-0.5292758089368259
-0.5292758089368259
-0.5292758089368259
-0.602080123266564
-0.602080123266564
-0.602080123266564
-0.4876733436055469
-0.4876733436055469
-0.4876733436055469
-0.6294684129429893
-0.6294684129429893
-0.6294684129429893
-0.6681818181818182
-0.6681818181818182
-0.5504237288135594
-0.5504237288135594
-0.5504237288135594
-0.6954545454545454
-0.6954545454545454
-0.6954545454545454
-0.6954545454545454
-0.5703004622496147
-0.5703004622496147
-0.5703004622496147
-0.5942218798151002
-0.5942218798151002
-0.6214946070878276
-0.6214946070878276
-0.6214946070878276
-0.4717257318952235
-0.4717257318952235
-0.4717257318952235
-0.5989599383667181
-0.5989599383667181
-0.5989599383667181
-0.4521956856702618
-0.4521956856702618
-0.46848998459167945
-0.46848998459167945
-0.46848998459167945
-0.46848998459167945
-0.4620184899845916
-0.4620184899845916
-0.4620184899845916
-0.3372110939907551
-0.3372110939907551
-0.40631741140215705
-0.40631741140215705
-0.40631741140215705
-0.2593220338983051
-0.2593220338983051
-0.2593220338983051
-0.30323574730354386
-0.30323574730354386
-0.30323574730354386
-0.23031587057010783
-0.23031587057010783
-0.23031587057010783
-0.13278120184899844
-0.13278120184899844
-0.13278120184899844
-0.24221879815100156
-0.24221879815100156
-0.09811248073959922
-0.09811248073959922
-0.09811248073959922
-0.22419106317411397
-0.22419106317411397
-0.22419106317411397
-0.22014637904468426
-0.22014637904468426
-0.22014637904468426
-0.28266563944530043
-0.28266563944530043
-0.28266563944530043
-0.4887134052388289
-0.4887134052388289
-0.46132511556240363
-0.46132511556240363
-0.46132511556240363
-0.6629815100154084
-0.6629815100154084
-0.6629815100154084
-0.6451848998459168
-0.6451848998459168
-0.6451848998459168
-0.7058551617873652
-0.7058551617873652
-0.7058551617873652
-0.7828197226502311
-0.7828197226502311
-0.7828197226502311
-0.6856317411402156
-0.6856317411402156
-0.6856317411402156
-0.8197996918335901
-0.6918721109399075
-0.6918721109399075
-0.6918721109399075
-0.7642141756548536
-0.7642141756548536
-0.7642141756548536
-0.7598228043143297
-0.7598228043143297
-0.7598228043143297
-0.6581278890600925
-0.6581278890600925
-0.789984591679507
-0.789984591679507
-0.6346687211093991
-0.6346687211093991
-0.7332434514637904
-0.7332434514637904
-0.7332434514637904
-0.6983436055469954
-0.6983436055469954
-0.6407935285053928
-0.6407935285053928
-0.6407935285053928
-0.74942218798151
-0.74942218798151
-0.74942218798151
-0.598035439137134
-0.598035439137134
-0.7044684129429892
-0.7044684129429892
-0.6403312788906008
-0.6403312788906008
-0.6403312788906008
-0.6313174114021571
-0.6313174114021571
-0.6313174114021571
-0.6991525423728813
-0.6991525423728813
-0.6991525423728813
-0.5854391371340524
-0.5854391371340524
-0.714984591679507
-0.714984591679507
-0.6057781201848998
-0.6057781201848998
-0.6604391371340524
-0.6604391371340524
-0.6604391371340524
-0.7019260400616333
-0.7019260400616333
-0.7019260400616333
-0.5808166409861326
-0.5808166409861326
-0.7302388289676425
-0.7302388289676425
-0.7302388289676425
-0.5956086286594762
-0.5956086286594762
-0.669106317411402
-0.669106317411402
-0.6782357473035439
-0.6782357473035439
-0.6782357473035439
-0.5827812018489984
-0.5827812018489984
-0.5827812018489984
-0.7011171032357474
-0.7011171032357474
-0.7011171032357474
-0.524191063174114
-0.524191063174114
-0.5920261941448383
-0.5920261941448383
-0.5920261941448383
-0.5474191063174114
-0.48732665639445294
-0.48732665639445294
-0.48732665639445294
-0.48732665639445294
-0.5833590138674885
-0.5833590138674885
-0.44364406779661003
-0.44364406779661003
-0.5745762711864406
-0.5745762711864406
-0.5745762711864406
-0.5367873651771957
-0.5367873651771957
-0.5706471494607088
-0.5706471494607088
-0.6397534668721109
-0.6397534668721109
-0.6397534668721109
-0.565793528505393
-0.565793528505393
-0.6915254237288135
-0.6915254237288135
-0.6915254237288135
-0.556895223420647
-0.556895223420647
-0.556895223420647
-0.6284283513097073
-0.6284283513097073
-0.6468027734976887
-0.6468027734976887
-0.5474191063174114
-0.5474191063174114
-0.5474191063174114
-0.7616718027734977
-0.7616718027734977
-0.7616718027734977
-0.5854391371340524
-0.5854391371340524
-0.5854391371340524
-0.10516178736517712
-0.10516178736517712
0.4631741140215715
0.4631741140215715
0.48270416024653295
0.48270416024653295
0.48270416024653295
0.4820107858243452
0.4820107858243452
0.4808551617873653
0.4808551617873653
0.4808551617873653
0.15046224961479204
0.15046224961479204
0.15046224961479204
-0.6409090909090909
-0.6409090909090909
-0.49206471494607085
-0.49206471494607085
-0.5690292758089368
-0.5690292758089368
-0.5885593220338983
-0.5885593220338983
-0.5885593220338983
-0.5885593220338983
-0.6576656394453004
-0.6576656394453004
-0.6576656394453004
-0.5803543913713406
-0.5803543913713406
-0.6039291217257319
-0.6039291217257319
-0.6202234206471495
-0.6202234206471495
-0.6202234206471495
-0.5058166409861324
-0.5058166409861324
-0.6255392912172573
-0.6255392912172573
-0.6255392912172573
-0.4729969183359015
-0.4729969183359015
-0.525693374422188
-0.525693374422188
-0.525693374422188
-0.5106702619414484
-0.5106702619414484
-0.3852850539291217
-0.3852850539291217
-0.3852850539291217
-0.4939137134052387
-0.4939137134052387
-0.3143297380585517
-0.3143297380585517
-0.3143297380585517
-0.35396764252696444
-0.35396764252696444
-0.35396764252696444
-0.28694144838212643
-0.28694144838212643
-0.188482280431433
-0.188482280431433
-0.188482280431433
-0.2714560862865949
-0.2714560862865949
-0.09210323574730372
-0.09210323574730372
-0.09210323574730372
-0.17715716486902933
-0.17715716486902933
-0.17715716486902933
-0.17715716486902933
-0.13867488443759624
-0.13867488443759624
-0.12850539291217244
-0.12850539291217244
-0.12850539291217244
-0.26926040061633283
-0.26926040061633283
-0.26926040061633283
-0.23193374422187985
-0.23193374422187985
-0.48778890600924507
-0.48778890600924507
-0.48778890600924507
-0.49437596302003084
-0.49437596302003084
-0.49437596302003084
-0.6021956856702619
-0.6021956856702619
-0.6021956856702619
-0.6021956856702619
-0.7204160246533127
-0.7204160246533127
-0.6342064714946072
-0.6342064714946072
-0.6342064714946072
-0.8206086286594761
-0.8206086286594761
-0.7079352850539291
-0.7079352850539291
-0.7079352850539291
-0.7562403697996919
-0.7562403697996919
-0.7562403697996919
-0.7562403697996919
-0.7868644067796611
-0.7868644067796611
-0.7868644067796611
-0.6982280431432974
-0.6982280431432974
-0.8030431432973806
-0.8030431432973806
-0.8030431432973806
-0.6647149460708783
-0.6647149460708783
-0.7617873651771957
-0.7617873651771957
-0.7617873651771957
-0.7104776579352851
-0.7104776579352851
-0.6679506933744223
-0.6679506933744223
-0.6679506933744223
-0.7554314329738059
-0.7554314329738059
-0.7554314329738059
-0.6136363636363635
-0.6136363636363635
-0.7379815100154082
-0.7379815100154082
-0.6578967642526964
-0.6578967642526964
-0.6578967642526964
-0.6580123266563944
-0.6580123266563944
-0.6580123266563944
-0.7184514637904469
-0.7184514637904469
-0.7184514637904469
-0.5952619414483822
-0.5952619414483822
-0.7310477657935284
-0.7310477657935284
-0.7310477657935284
-0.6253081664098612
-0.6253081664098612
-0.6666795069337442
-0.6666795069337442
-0.6666795069337442
-0.7008859784283513
-0.7008859784283513
-0.6046224961479199
-0.6046224961479199
-0.6046224961479199
-0.7348613251155623
-0.7348613251155623
-0.6092449922958396
-0.6092449922958396
-0.6867873651771956
-0.6867873651771956
-0.6867873651771956
-0.670724191063174
-0.670724191063174
-0.6047380585516179
-0.6047380585516179
-0.6047380585516179
-0.7308166409861325
-0.7308166409861325
-0.7308166409861325
-0.5752696456086286
-0.5752696456086286
-0.6842449922958398
-0.6842449922958398
-0.6441448382126348
-0.6441448382126348
-0.5895993836671802
-0.5895993836671802
-0.5895993836671802
-0.5895993836671802
-0.6416024653312788
-0.6416024653312788
-0.4831664098613251
-0.4831664098613251
-0.6057781201848998
-0.6057781201848998
-0.6057781201848998
-0.49021571648690276
-0.49021571648690276
-0.5127503852080123
-0.5127503852080123
-0.5127503852080123
-0.5655624036979969
-0.5655624036979969
-0.45670261941448387
-0.45670261941448387
-0.45670261941448387
-0.641255778120185
-0.641255778120185
-0.641255778120185
-0.5424499229583977
-0.5424499229583977
-0.6179121725731895
-0.6179121725731895
-0.6612480739599383
-0.6612480739599383
-0.559668721109399
-0.559668721109399
-0.559668721109399
-0.559668721109399
-0.7038906009244992
-0.7038906009244992
-0.7038906009244992
-0.5692604006163328
-0.5692604006163328
-0.6484206471494607
-0.6484206471494607
-0.6320107858243451
-0.6320107858243451
-0.6320107858243451
-0.6615947611710322
-0.6615947611710322
-0.6743066255778121
-0.6743066255778121
-0.6743066255778121
0.10978428351309688
0.10978428351309688
0.47831278890600926
0.47831278890600926
0.47831278890600926
0.48258859784283503
0.48258859784283503
0.48258859784283503
0.48224191063174127
0.4784283513097072
0.4784283513097072
0.4784283513097072
0.04460708782742673
0.04460708782742673
0.04460708782742673
-0.7421417565485362
-0.7421417565485362
-0.7421417565485362
-0.41255778120184905
-0.41255778120184905
-0.5560862865947611
-0.5560862865947611
-0.5560862865947611
-0.6988058551617874
-0.6988058551617874
-0.5202619414483821
-0.5202619414483821
-0.5202619414483821
-0.6881741140215717
-0.6881741140215717
-0.6881741140215717
-0.5575885978428351
-0.5575885978428351
-0.5913328197226502
-0.5913328197226502
-0.5913328197226502
-0.5934129429892141
-0.5934129429892141
-0.49495377503852067
-0.49495377503852067
-0.601502311248074
-0.601502311248074
-0.4389060092449921
-0.4389060092449921
-0.4389060092449921
-0.5169106317411402
-0.5169106317411402
-0.5169106317411402
-0.45277349768875186
-0.45277349768875186
-0.45277349768875186
-0.3632126348228044
-0.3632126348228044
-0.4378659476117104
-0.4378659476117104
-0.4378659476117104
-0.2652157164869031
-0.2652157164869031
-0.3254237288135593
-0.3254237288135593
-0.3254237288135593
-0.3254237288135593
-0.23551617873651765
-0.23551617873651765
-0.1629429892141756
-0.1629429892141756
-0.20916795069337435
-0.20916795069337435
-0.20916795069337435
-0.09071648690292755
-0.09071648690292755
-0.20442989214175644
-0.20442989214175644
-0.12966101694915255
-0.12966101694915255
-0.12966101694915255
-0.21321263482280428
-0.21321263482280428
-0.21321263482280428
-0.3563944530046226
-0.3563944530046226
-0.3563944530046226
-0.3714175654853622
-0.3714175654853622
-0.60173343605547
-0.60173343605547
-0.5582819722650232
-0.5582819722650232
-0.5582819722650232
-0.6936055469953776
-0.6936055469953776
-0.6936055469953776
-0.749306625577812
-0.749306625577812
-0.749306625577812
-0.7045839753466872
-0.7045839753466872
-0.824653312788906
-0.824653312788906
-0.6970724191063173
-0.6970724191063173
-0.6970724191063173
-0.8030431432973806
-0.8030431432973806
-0.8030431432973806
-0.7548536209553158
-0.7548536209553158
-0.7111710323574731
-0.7111710323574731
-0.7111710323574731
-0.8078967642526964
-0.8078967642526964
-0.6572033898305085
-0.6572033898305085
-0.7592449922958397
-0.7592449922958397
-0.6921032357473035
-0.6921032357473035
-0.6921032357473035
-0.6872496147919875
-0.6872496147919875
-0.6872496147919875
-0.7442218798151001
-0.7442218798151001
-0.7442218798151001
-0.6172187981510016
-0.6172187981510016
-0.751848998459168
-0.751848998459168
-0.751848998459168
-0.6315485362095532
-0.6315485362095532
-0.6782357473035439
-0.6782357473035439
-0.6782357473035439
-0.7275808936825886
-0.7275808936825886
-0.6094761171032357
-0.6094761171032357
-0.6094761171032357
-0.7392526964560863
-0.7392526964560863
-0.6145608628659477
-0.6145608628659477
-0.6971879815100155
-0.6971879815100155
-0.6971879815100155
-0.6944144838212635
-0.6944144838212635
-0.6181432973805856
-0.6181432973805856
-0.6181432973805856
-0.7322033898305085
-0.7322033898305085
-0.7322033898305085
-0.605431432973806
-0.605431432973806
-0.605431432973806
-0.6975346687211094
-0.6975346687211094
-0.6446070878274268
-0.6446070878274268
-0.633281972265023
-0.633281972265023
-0.633281972265023
-0.7169491525423729
-0.7169491525423729
-0.7169491525423729
-0.5823189522342065
-0.5823189522342065
-0.6971879815100155
-0.6971879815100155
-0.6115562403697996
-0.6115562403697996
-0.6115562403697996
-0.5698382126348227
-0.5698382126348227
-0.59653312788906
-0.59653312788906
-0.4836286594761172
-0.4836286594761172
-0.4836286594761172
-0.5984976887519261
-0.5984976887519261
-0.5984976887519261
-0.48455315870570104
-0.48455315870570104
-0.5224576271186441
-0.5224576271186441
-0.5677580893682588
-0.5677580893682588
-0.5677580893682588
-0.5348228043143297
-0.5348228043143297
-0.5348228043143297
-0.6618258859784283
-0.6618258859784283
-0.6618258859784283
-0.5332049306625578
-0.5332049306625578
-0.6619414483821264
-0.6619414483821264
-0.6619414483821264
-0.639060092449923
-0.639060092449923
-0.565331278890601
-0.565331278890601
-0.565331278890601
-0.6879429892141756
-0.6879429892141756
-0.5452234206471493
-0.5452234206471493
-0.5452234206471493
-0.6857473035439137
-0.6857473035439137
-0.6886363636363637
-0.6886363636363637
-0.6886363636363637
-0.4723035439137133
-0.4723035439137133
0.16698767334360554
0.16698767334360554
0.4803929121725732
0.4803929121725732
0.4803929121725732
0.48258859784283503
0.48258859784283503
0.48258859784283503
0.48212634822804334
0.48212634822804334
0.48212634822804334
0.4677966101694915
0.4677966101694915
-0.13208782742681047
-0.13208782742681047
-0.6704930662557782
-0.6704930662557782
-0.6704930662557782
-0.5172573189522343
-0.5172573189522343
-0.5172573189522343
-0.5325115562403697
-0.5325115562403697
-0.6820493066255777
-0.6820493066255777
-0.6212634822804315
-0.6212634822804315
-0.6212634822804315
-0.5838212634822804
-0.5838212634822804
-0.6889830508474576
-0.6889830508474576
-0.5393297380585516
-0.5393297380585516
-0.5393297380585516
-0.6270416024653312
-0.6270416024653312
-0.6270416024653312
-0.6270416024653312
-0.5507704160246534
-0.5507704160246534
-0.5026964560862865
-0.5026964560862865
-0.5828967642526965
-0.5828967642526965
-0.41567796610169494
-0.41567796610169494
-0.41567796610169494
-0.41567796610169494
-0.5055855161787366
-0.5055855161787366
-0.5055855161787366
-0.408050847457627
-0.408050847457627
-0.408050847457627
-0.3617103235747303
-0.3617103235747303
-0.37881355932203387
-0.37881355932203387
-0.37881355932203387
-0.21159476117103226
-0.21159476117103226
-0.21159476117103226
-0.31664098613251146
-0.31664098613251146
-0.31664098613251146
-0.16918335901386738
-0.16918335901386738
-0.16918335901386738
-0.17461479198767327
-0.17461479198767327
-0.17461479198767327
-0.2125192604006163
-0.2125192604006163
-0.2125192604006163
-0.09926810477657932
-0.09926810477657932
-0.2652157164869031
-0.2652157164869031
-0.2652157164869031
-0.21217257318952232
-0.21217257318952232
-0.21217257318952232
-0.37719568567026185
-0.37719568567026185
-0.37719568567026185
-0.48385978428351306
-0.48385978428351306
-0.48385978428351306
-0.52904468412943
-0.52904468412943
-0.716602465331279
-0.716602465331279
-0.6333975346687211
-0.6333975346687211
-0.6333975346687211
-0.784437596302003
-0.784437596302003
-0.784437596302003
-0.751848998459168
-0.751848998459168
-0.7290832049306626
-0.7290832049306626
-0.7290832049306626
-0.8381741140215717
-0.8381741140215717
-0.6976502311248074
-0.6976502311248074
-0.8208397534668721
-0.8208397534668721
-0.8208397534668721
-0.7215716486902928
-0.7215716486902928
-0.7283898305084745
-0.7283898305084745
-0.7283898305084745
-0.7770416024653313
-0.7770416024653313
-0.7770416024653313
-0.6474961479198768
-0.6474961479198768
-0.7779661016949152
-0.6580123266563944
-0.6580123266563944
-0.6580123266563944
-0.6964946070878274
-0.6964946070878274
-0.6964946070878274
-0.7197226502311249
-0.7197226502311249
-0.7197226502311249
-0.6275038520801233
-0.6275038520801233
-0.7356702619414484
-0.7356702619414484
-0.7356702619414484
-0.6145608628659477
-0.6145608628659477
-0.6961479198767335
-0.6961479198767335
-0.6961479198767335
-0.6768489984591679
-0.6768489984591679
-0.6288906009244992
-0.6288906009244992
-0.6288906009244992
-0.7345146379044685
-0.7345146379044685
-0.7345146379044685
-0.5974576271186441
-0.5974576271186441
-0.7271186440677966
-0.7271186440677966
-0.6565100154083205
-0.6565100154083205
-0.6565100154083205
-0.636171032357473
-0.636171032357473
-0.636171032357473
-0.7253852080123266
-0.7253852080123266
-0.7253852080123266
-0.5855546995377504
-0.5855546995377504
-0.7241140215716486
-0.7241140215716486
-0.6238058551617873
-0.6238058551617873
-0.640100154083205
-0.640100154083205
-0.640100154083205
-0.6789291217257318
-0.6789291217257318
-0.6789291217257318
-0.5237288135593221
-0.5237288135593221
-0.6382511556240369
-0.6382511556240369
-0.5147149460708782
-0.5147149460708782
-0.5147149460708782
-0.5401386748844377
-0.5401386748844377
-0.5401386748844377
-0.5644067796610168
-0.4769260400616333
-0.4769260400616333
-0.4769260400616333
-0.4769260400616333
-0.6052003081664099
-0.6052003081664099
-0.5263867488443761
-0.5263867488443761
-0.6327041602465332
-0.6327041602465332
-0.6077426810477657
-0.6077426810477657
-0.6077426810477657
-0.5987288135593221
-0.5987288135593221
-0.5987288135593221
-0.6867873651771956
-0.6867873651771956
-0.6867873651771956
-0.555855161787365
-0.555855161787365
-0.6694530046224962
-0.6694530046224962
-0.6694530046224962
-0.59942218798151
-0.59942218798151
-0.6055469953775038
-0.6055469953775038
-0.6055469953775038
-0.7719568567026194
-0.7719568567026194
-0.4127889060092449
-0.4127889060092449
-0.4127889060092449
0.18247303543913707
0.18247303543913707
0.18247303543913707
0.4800462249614794
0.4800462249614794
0.48351309707241885
0.48351309707241885
0.48212634822804334
0.48212634822804334
0.48212634822804334
0.4627118644067796
0.4627118644067796
0.4627118644067796
-0.20789676425269654
-0.20789676425269654
-0.20789676425269654
-0.6239214175654854
-0.6239214175654854
-0.47195685670261933
-0.47195685670261933
-0.47195685670261933
-0.5913328197226502
-0.5913328197226502
-0.605431432973806
-0.605431432973806
-0.605431432973806
-0.605431432973806
-0.6606702619414484
-0.6606702619414484
-0.6606702619414484
-0.5433744221879815
-0.5433744221879815
-0.6572033898305085
-0.6572033898305085
-0.6572033898305085
-0.5760785824345147
-0.5760785824345147
-0.5760785824345147
-0.525231124807396
-0.525231124807396
-0.6139830508474577
-0.6139830508474577
-0.6139830508474577
-0.4540446841294299
-0.4540446841294299
-0.4540446841294299
-0.5537750385208011
-0.5537750385208011
-0.5537750385208011
-0.5537750385208011
-0.44919106317411406
-0.44919106317411406
-0.41614021571648685
-0.41614021571648685
-0.41614021571648685
-0.4669876733436056
-0.4669876733436056
-0.2946841294298921
-0.2946841294298921
-0.2946841294298921
-0.379969183359014
-0.379969183359014
-0.379969183359014
-0.379969183359014
-0.23343605546995372
-0.23343605546995372
-0.22326656394452993
-0.22326656394452993
-0.22326656394452993
-0.2223420647149461
-0.2223420647149461
-0.2223420647149461
-0.10065485362095528
-0.10065485362095528
-0.10065485362095528
-0.21621725731895225
-0.21621725731895225
-0.21621725731895225
-0.10631741140215722
-0.10631741140215722
-0.2159861325115564
-0.2159861325115564
-0.2159861325115564
-0.2159861325115564
-0.2560862865947613
-0.2560862865947613
-0.2560862865947613
-0.3025423728813559
-0.5427966101694915
-0.5427966101694915
-0.5427966101694915
-0.4970338983050848
-0.4970338983050848
-0.4970338983050848
-0.6788135593220339
-0.6788135593220339
-0.6788135593220339
-0.6941833590138674
-0.6941833590138674
-0.6941833590138674
-0.6911787365177195
-0.6911787365177195
-0.6911787365177195
-0.7970338983050848
-0.7970338983050848
-0.6700308166409862
-0.6700308166409862
-0.6700308166409862
-0.8110169491525424
-0.8110169491525424
-0.8110169491525424
-0.713713405238829
-0.713713405238829
-0.7302388289676425
-0.7302388289676425
-0.7302388289676425
-0.7302388289676425
-0.7809707241910632
-0.7809707241910632
-0.6536209553158705
-0.6536209553158705
-0.6536209553158705
-0.7689522342064715
-0.7689522342064715
-0.6419491525423728
-0.6419491525423728
-0.6419491525423728
-0.6419491525423728
-0.7169491525423729
-0.7169491525423729
-0.7169491525423729
-0.713366718027735
-0.713366718027735
-0.713366718027735
-0.6128274268104776
-0.6128274268104776
-0.7266563944530047
-0.7266563944530047
-0.7266563944530047
-0.603813559322034
-0.603813559322034
-0.603813559322034
-0.6910631741140215
-0.6910631741140215
-0.6910631741140215
-0.6563944530046224
-0.6563944530046224
-0.6563944530046224
-0.6183744221879814
-0.6183744221879814
-0.6183744221879814
-0.7197226502311249
-0.7197226502311249
-0.5832434514637904
-0.5832434514637904
-0.7122110939907551
-0.7122110939907551
-0.7122110939907551
-0.638020030816641
-0.638020030816641
-0.638020030816641
-0.6410246533127889
-0.6410246533127889
-0.6410246533127889
-0.7111710323574731
-0.7111710323574731
-0.5788520801232665
-0.5788520801232665
-0.7073574730354392
-0.7073574730354392
-0.7073574730354392
-0.6048536209553159
-0.6048536209553159
-0.6489984591679507
-0.6489984591679507
-0.6489984591679507
-0.6829738058551618
-0.6829738058551618
-0.6829738058551618
-0.5670647149460708
-0.5670647149460708
-0.6832049306625578
-0.6832049306625578
-0.52846687211094
-0.52846687211094
-0.52846687211094
-0.561171032357473
-0.561171032357473
-0.561171032357473
-0.5551617873651773
-0.5551617873651773
-0.5551617873651773
-0.45820493066255774
-0.45820493066255774
-0.45820493066255774
-0.5945685670261942
-0.5945685670261942
-0.4454930662557781
-0.4454930662557781
-0.5535439137134053
-0.5535439137134053
-0.5535439137134053
-0.564060092449923
-0.564060092449923
-0.564060092449923
-0.5470724191063174
-0.5470724191063174
-0.6615947611710322
-0.6615947611710322
-0.558166409861325
-0.558166409861325
-0.558166409861325
-0.6778890600924499
-0.6778890600924499
-0.5849768875192605
-0.5849768875192605
-0.5808166409861326
-0.5808166409861326
-0.5808166409861326
-0.6511941448382126
-0.6511941448382126
-0.6511941448382126
-0.5334360554699538
-0.5334360554699538
-0.7585516178736518
-0.7585516178736518
-0.5427966101694915
-0.5427966101694915
0.08285824345146375
0.08285824345146375
0.08285824345146375
0.47750385208012336
0.47750385208012336
0.47750385208012336
0.48224191063174127
0.48224191063174127
0.48224191063174127
0.48212634822804334
0.48212634822804334
0.4779661016949155
0.4779661016949155
0.02288135593220364
0.02288135593220364
0.02288135593220364
-0.6918721109399075
-0.42318952234206475
-0.42318952234206475
-0.6045069337442218
-0.6045069337442218
-0.6045069337442218
-0.5841679506933743
-0.5841679506933743
-0.5841679506933743
-0.5841679506933743
-0.6283127889060093
-0.6283127889060093
-0.600462249614792
-0.600462249614792
-0.600462249614792
-0.5823189522342065
-0.5823189522342065
-0.5823189522342065
-0.6343220338983051
-0.6343220338983051
-0.6343220338983051
-0.5066255778120186
-0.5066255778120186
-0.5066255778120186
-0.5066255778120186
-0.6032357473035439
-0.6032357473035439
-0.5025808936825886
-0.5025808936825886
-0.5025808936825886
-0.4981895223420647
-0.4981895223420647
-0.4981895223420647
-0.522342064714946
-0.522342064714946
-0.522342064714946
-0.376964560862866
-0.376964560862866
-0.376964560862866
-0.47033898305084754
-0.47033898305084754
-0.32600154083204935
-0.32600154083204935
-0.32600154083204935
-0.3395223420647149
-0.3395223420647149
-0.3395223420647149
-0.3128274268104776
-0.3128274268104776
-0.3128274268104776
-0.17345916795069338
-0.17345916795069338
-0.26117103235747297
-0.26117103235747297
-0.26117103235747297
-0.26117103235747297
-0.10308166409861319
-0.10308166409861319
-0.10308166409861319
-0.1719568567026193
-0.1719568567026193
-0.1719568567026193
-0.15832049306625584
-0.15832049306625584
-0.10955315870570104
-0.10955315870570104
-0.10955315870570104
-0.3061248073959939
-0.3061248073959939
-0.3061248073959939
-0.266718027734977
-0.266718027734977
-0.266718027734977
-0.5038520801232667
-0.5038520801232667
-0.5038520801232667
-0.5375963020030817
-0.5375963020030817
-0.5375963020030817
-0.5944530046224961
-0.5944530046224961
-0.7332434514637904
-0.7332434514637904
-0.7332434514637904
-0.7332434514637904
-0.6566255778120185
-0.6566255778120185
-0.6566255778120185
-0.8122881355932203
-0.8122881355932203
-0.7028505392912172
-0.7028505392912172
-0.7028505392912172
-0.7664098613251156
-0.7664098613251156
-0.7664098613251156
-0.7986517719568567
-0.7986517719568567
-0.7986517719568567
-0.68135593220339
-0.68135593220339
-0.68135593220339
-0.8177195685670262
-0.8177195685670262
-0.8177195685670262
-0.669106317411402
-0.669106317411402
-0.669106317411402
-0.7481510015408319
-0.7481510015408319
-0.7481510015408319
-0.7243451463790447
-0.7243451463790447
-0.6420647149460709
-0.6420647149460709
-0.7810862865947612
-0.7810862865947612
-0.6100539291217257
-0.7058551617873652
-0.7058551617873652
-0.7058551617873652
-0.6922187981510015
-0.6922187981510015
-0.6922187981510015
-0.6435670261941449
-0.6435670261941449
-0.7325500770416025
-0.7325500770416025
-0.597804314329738
-0.597804314329738
-0.597804314329738
-0.597804314329738
-0.7220338983050847
-0.7220338983050847
-0.6511941448382126
-0.6511941448382126
-0.6511941448382126
-0.6618258859784283
-0.6618258859784283
-0.6618258859784283
-0.7294298921417566
-0.7294298921417566
-0.5794298921417564
-0.5794298921417564
-0.7290832049306626
-0.7290832049306626
-0.7290832049306626
-0.6422958397534669
-0.6422958397534669
-0.6422958397534669
-0.675346687211094
-0.675346687211094
-0.675346687211094
-0.6971879815100155
-0.6971879815100155
-0.6971879815100155
-0.602657935285054
-0.602657935285054
-0.7315100154083205
-0.7315100154083205
-0.7315100154083205
-0.6088983050847457
-0.6088983050847457
-0.6088983050847457
-0.6771956856702619
-0.6771956856702619
-0.6478428351309706
-0.6478428351309706
-0.6478428351309706
-0.5270801232665638
-0.5270801232665638
-0.5270801232665638
-0.6216101694915254
-0.6216101694915254
-0.48339753466872115
-0.48339753466872115
-0.48339753466872115
-0.5705315870570108
-0.5705315870570108
-0.5016563944530046
-0.5016563944530046
-0.5016563944530046
-0.5016563944530046
-0.49842064714946077
-0.49842064714946077
-0.6183744221879814
-0.6183744221879814
-0.522919876733436
-0.522919876733436
-0.522919876733436
-0.6450693374422187
-0.6450693374422187
-0.6450693374422187
-0.5887904468412943
-0.5887904468412943
-0.5887904468412943
-0.6416024653312788
-0.6416024653312788
-0.6416024653312788
-0.673959938366718
-0.673959938366718
-0.5626733436055471
-0.5626733436055471
-0.5626733436055471
-0.6955701078582435
-0.6955701078582435
-0.5511171032357473
-0.5511171032357473
-0.5511171032357473
-0.5511171032357473
-0.6483050847457626
-0.7608628659476117
-0.7608628659476117
-0.4072419106317411
-0.4072419106317411
-0.4072419106317411
0.22557781201849014
0.22557781201849014
0.480624036979969
0.480624036979969
0.480624036979969
0.4824730354391371
0.4824730354391371
0.4824730354391371
0.48224191063174127
0.48224191063174127
0.48224191063174127
0.4466486902927582
0.4466486902927582
0.4466486902927582
-0.3223035439137134
-0.3223035439137134
-0.6448382126348229
-0.46918335901386765
-0.46918335901386765
-0.46918335901386765
-0.5936440677966102
-0.5936440677966102
-0.5936440677966102
-0.5936440677966102
-0.6625192604006164
-0.6625192604006164
-0.6625192604006164
-0.6782357473035439
-0.6782357473035439
-0.562095531587057
-0.562095531587057
-0.562095531587057
-0.6904853620955316
-0.6904853620955316
-0.5770030816640986
-0.5770030816640986
-0.5770030816640986
-0.5770030816640986
-0.5807010785824345
-0.5807010785824345
-0.6021956856702619
-0.6021956856702619
-0.6021956856702619
-0.47623266563944533
-0.47623266563944533
-0.47623266563944533
-0.5659090909090909
-0.5659090909090909
-0.47461479198767353
-0.47461479198767353
-0.49125577812018495
-0.49125577812018495
-0.49125577812018495
-0.42284283513097076
-0.42284283513097076
-0.42284283513097076
-0.341949152542373
-0.341949152542373
-0.341949152542373
-0.4466486902927582
-0.4466486902927582
-0.4466486902927582
-0.23597842835130978
-0.23597842835130978
-0.2781587057010786
-0.2781587057010786
-0.2349383667180276
-0.2349383667180276
-0.2349383667180276
-0.2349383667180276
-0.12099383667180263
-0.12099383667180263
-0.2148305084745763
-0.2148305084745763
-0.2148305084745763
-0.1377503852080122
-0.1377503852080122
-0.1377503852080122
-0.26891371340523884
-0.26891371340523884
-0.28312788906009256
-0.28312788906009256
-0.28312788906009256
-0.3702619414483821
-0.3702619414483821
-0.5508859784283513
-0.5508859784283513
-0.5508859784283513
-0.5381741140215717
-0.5381741140215717
-0.5381741140215717
-0.5381741140215717
-0.7020416024653313
-0.7020416024653313
-0.6855161787365178
-0.6855161787365178
-0.7579738058551617
-0.7579738058551617
-0.7579738058551617
-0.8182973805855162
-0.8182973805855162
-0.8182973805855162
-0.74653312788906
-0.74653312788906
-0.74653312788906
-0.8537750385208012
-0.8537750385208012
-0.8537750385208012
-0.7151001540832049
-0.7151001540832049
-0.8015408320493066
-0.8015408320493066
-0.791486902927581
-0.791486902927581
-0.791486902927581
-0.6837827426810478
-0.6837827426810478
-0.8100924499229584
-0.8100924499229584
-0.8100924499229584
-0.6538520801232666
-0.6538520801232666
-0.6538520801232666
-0.7357858243451465
-0.7357858243451465
-0.7070107858243451
-0.7070107858243451
-0.7070107858243451
-0.6514252696456087
-0.6514252696456087
-0.7645608628659476
-0.7645608628659476
-0.7645608628659476
-0.7645608628659476
-0.6411402157164869
-0.6411402157164869
-0.6411402157164869
-0.74768875192604
-0.74768875192604
-0.6483050847457626
-0.6483050847457626
-0.638135593220339
-0.638135593220339
-0.638135593220339
-0.7260785824345146
-0.7260785824345146
-0.7260785824345146
-0.5904083204930664
-0.5904083204930664
-0.5904083204930664
-0.5904083204930664
-0.6812403697996918
-0.6812403697996918
-0.6498073959938367
-0.6498073959938367
-0.6983436055469954
-0.6983436055469954
-0.6983436055469954
-0.6881741140215717
-0.6881741140215717
-0.6881741140215717
-0.6063559322033898
-0.6063559322033898
-0.7244607087827427
-0.7244607087827427
-0.7244607087827427
-0.599191063174114
-0.599191063174114
-0.599191063174114
-0.6301617873651771
-0.6301617873651771
-0.6301617873651771
-0.6165254237288136
-0.6165254237288136
-0.5129815100154084
-0.5129815100154084
-0.6082049306625577
-0.6082049306625577
-0.6082049306625577
-0.6082049306625577
-0.4981895223420647
-0.4981895223420647
-0.4981895223420647
-0.5542372881355931
-0.5542372881355931
-0.5542372881355931
-0.5445300462249616
-0.5445300462249616
-0.5550462249614792
-0.5550462249614792
-0.6538520801232666
-0.6538520801232666
-0.6538520801232666
-0.6538520801232666
-0.5207241910631741
-0.5207241910631741
-0.6673728813559323
-0.6673728813559323
-0.6673728813559323
-0.6526964560862866
-0.6526964560862866
-0.6526964560862866
-0.6214946070878276
-0.6214946070878276
-0.6805469953775038
-0.6805469953775038
-0.5357473035439138
-0.5357473035439138
-0.5357473035439138
-0.6828582434514638
-0.6828582434514638
-0.6429892141756548
-0.6429892141756548
-0.6429892141756548
-0.6429892141756548
-0.7285053929121725
-0.7285053929121725
