0.010169491525423568
-0.5077812018489984
-0.5089368258859783
-0.5089368258859783
-0.5061633281972264
-0.5061633281972264
-0.5043143297380586
-0.5043143297380586
-0.5043143297380586
-0.4929892141756549
-0.4929892141756549
-0.4929892141756549
-0.49241140215716483
-0.49241140215716483
-0.49241140215716483
-0.48258859784283525
-0.48258859784283525
-0.48859784283513097
-0.48859784283513097
-0.46132511556240363
-0.46132511556240363
-0.40504622496147924
-0.40504622496147924
-0.40504622496147924
-0.35593220338983045
-0.35593220338983045
-0.3463405238828967
-0.3463405238828967
-0.5214175654853621
-0.5214175654853621
-0.7773882896764253
-0.7773882896764253
-0.7773882896764253
-0.7894067796610169
-0.7894067796610169
-0.7894067796610169
-0.6685285053929122
-0.6685285053929122
-0.6685285053929122
-0.5127503852080123
-0.5127503852080123
-0.46768104776579356
-0.46768104776579356
-0.46768104776579356
-0.489869029275809
-0.489869029275809
-0.48697996918335895
-0.48697996918335895
-0.48697996918335895
-0.4801617873651771
-0.4801617873651771
-0.4740369799691835
-0.4740369799691835
-0.4682588597842834
-0.4682588597842834
-0.4682588597842834
-0.4687211093990755
-0.4687211093990755
-0.4728813559322034
-0.4728813559322034
-0.4728813559322034
-0.4799306625577813
-0.4799306625577813
-0.4864021571648689
-0.4864021571648689
-0.485246533127889
-0.485246533127889
-0.485246533127889
-0.485246533127889
-0.49518489984591674
-0.49518489984591674
-0.5030431432973805
-0.5030431432973805
-0.5099768875192603
-0.5099768875192603
-0.5180662557781202
-0.5180662557781202
-0.5180662557781202
-0.5157550077041604
-0.5157550077041604
-0.5157550077041604
-0.5145993836671803
-0.5145993836671803
-0.5145993836671803
-0.5068567026194144
-0.5068567026194144
-0.5043143297380586
-0.5043143297380586
-0.5044298921417566
-0.5044298921417566
-0.5044298921417566
-0.5053543913713405
-0.5053543913713405
-0.5053543913713405
-0.5174884437596301
-0.5174884437596301
-0.519568567026194
-0.519568567026194
-0.5208397534668721
-0.5208397534668721
-0.5208397534668721
-0.5228043143297381
-0.5228043143297381
-0.5202619414483821
-0.5202619414483821
-0.5202619414483821
-0.5136748844375962
-0.5136748844375962
-0.5118258859784284
-0.5118258859784284
-0.5118258859784284
-0.5039676425269646
-0.5039676425269646
-0.5039676425269646
-0.49587827426810493
-0.47865947611710324
-0.47865947611710324
-0.4721879815100154
-0.4721879815100154
-0.4721879815100154
-0.46768104776579356
-0.46768104776579356
-0.46768104776579356
-0.4579738058551619
-0.4579738058551619
-0.4579738058551619
-0.4595916795069339
-0.4595916795069339
-0.45820493066255774
-0.45820493066255774
-0.45820493066255774
-0.45265793528505394
-0.45265793528505394
-0.45624036979969196
-0.45624036979969196
-0.45624036979969196
-0.4565870570107857
-0.4565870570107857
-0.46016949152542375
-0.46016949152542375
-0.4671032357473037
-0.4671032357473037
-0.4671032357473037
-0.46814329738058547
-0.46814329738058547
-0.47392141756548534
-0.47392141756548534
-0.47392141756548534
-0.4651386748844375
-0.4651386748844375
-0.46248073959938374
-0.46248073959938374
-0.4604006163328198
-0.4604006163328198
-0.4604006163328198
-0.44722650231124805
-0.44722650231124805
-0.44722650231124805
-0.44630200308166423
-0.44630200308166423
-0.44791987673343603
-0.44791987673343603
-0.450924499229584
-0.450924499229584
-0.450924499229584
-0.45670261941448387
-0.45670261941448387
-0.45670261941448387
-0.4508089368258861
-0.4508089368258861
-0.45496918335901393
-0.45496918335901393
-0.4591294298921418
-0.4591294298921418
-0.45947611710323577
-0.45947611710323577
-0.45947611710323577
-0.4721879815100154
-0.4721879815100154
-0.4721879815100154
-0.4744992295839754
-0.4744992295839754
-0.4813174114021572
-0.4813174114021572
-0.4813174114021572
-0.48270416024653295
-0.48270416024653295
-0.4778505392912171
-0.4778505392912171
-0.4793528505392912
-0.4793528505392912
-0.4793528505392912
-0.4729969183359015
-0.4729969183359015
-0.4643297380585516
-0.4643297380585516
-0.4643297380585516
-0.47010785824345147
-0.47010785824345147
-0.47010785824345147
-0.47819722650231133
-0.48224191063174104
-0.48224191063174104
-0.48224191063174104
-0.4738058551617874
-0.4738058551617874
-0.4718412942989214
-0.4718412942989214
-0.4718412942989214
-0.4744992295839754
-0.4744992295839754
-0.4744992295839754
-0.47091679506933737
-0.47091679506933737
-0.46525423728813564
-0.46525423728813564
-0.40354391371340537
-0.40354391371340537
-0.40354391371340537
-0.3211479198767335
-0.3211479198767335
-0.3211479198767335
-0.33108628659476125
-0.33108628659476125
-0.48536209553158693
-0.48536209553158693
-0.48536209553158693
-0.6916409861325115
-0.7426040061633282
-0.7426040061633282
-0.7426040061633282
-0.67673343605547
-0.67673343605547
-0.67673343605547
-0.521879815100154
-0.521879815100154
-0.521879815100154
-0.4445685670261943
-0.4445685670261943
-0.44491525423728806
-0.44491525423728806
-0.44491525423728806
-0.4584360554699538
-0.4584360554699538
-0.47010785824345147
-0.47010785824345147
-0.47010785824345147
-0.4851309707241911
-0.4851309707241911
-0.48305084745762716
-0.48305084745762716
-0.48305084745762716
-0.4787750385208014
-0.4787750385208014
-0.48686440677966103
-0.48686440677966103
-0.48686440677966103
-0.48929121725731894
-0.48929121725731894
-0.4927580893682588
-0.4927580893682588
-0.5005007704160247
-0.5005007704160247
-0.5005007704160247
-0.49726502311248066
-0.49726502311248066
-0.5060477657935285
-0.5060477657935285
-0.5125192604006163
-0.5125192604006163
-0.5125192604006163
-0.5098613251155625
-0.5098613251155625
-0.5007318952234208
-0.5007318952234208
-0.5007318952234208
-0.492526964560863
-0.492526964560863
-0.492526964560863
-0.4931047765793528
-0.4931047765793528
-0.4931047765793528
-0.4854776579352851
-0.492180277349769
-0.492180277349769
-0.5140215716486903
-0.5140215716486903
-0.5140215716486903
-0.520608628659476
-0.520608628659476
-0.520608628659476
-0.524653312788906
-0.524653312788906
-0.524653312788906
-0.5200308166409862
-0.5200308166409862
-0.5127503852080123
-0.5127503852080123
-0.5022342064714946
-0.5022342064714946
-0.5022342064714946
-0.4831664098613251
-0.4831664098613251
-0.4831664098613251
-0.4772727272727273
-0.4772727272727273
-0.47669491525423746
-0.47669491525423746
-0.4780816640986132
-0.4780816640986132
-0.4831664098613251
-0.4831664098613251
-0.4831664098613251
-0.4749614791987673
-0.4749614791987673
-0.4659476117103236
-0.4659476117103236
-0.4659476117103236
-0.45820493066255774
-0.45820493066255774
-0.45820493066255774
-0.4518489984591678
-0.4518489984591678
-0.4579738058551619
-0.4579738058551619
-0.46768104776579356
-0.46768104776579356
-0.47981510015408313
-0.47981510015408313
-0.47981510015408313
-0.48374422187981514
-0.48374422187981514
-0.48374422187981514
-0.48224191063174104
-0.48224191063174104
-0.48224191063174104
-0.4862865947611712
-0.4862865947611712
-0.48501540832049317
-0.4803929121725732
-0.4803929121725732
-0.4803929121725732
-0.48189522342064706
-0.48189522342064706
-0.48189522342064706
-0.47946841294298914
-0.47946841294298914
-0.47946841294298914
-0.48177966101694913
-0.48177966101694913
-0.48432203389830497
-0.48432203389830497
-0.4803929121725732
-0.4803929121725732
-0.4803929121725732
-0.4799306625577813
-0.4799306625577813
-0.4799306625577813
-0.47681047765793516
-0.47681047765793516
-0.47507704160246544
-0.47507704160246544
-0.4753081664098613
-0.4753081664098613
-0.4753081664098613
-0.4780816640986132
-0.4780816640986132
-0.489175654853621
-0.489175654853621
-0.4939137134052387
-0.4939137134052387
-0.4942604006163329
-0.4942604006163329
-0.4942604006163329
-0.5009630200308166
-0.5009630200308166
-0.5009630200308166
-0.49449152542372876
-0.49449152542372876
-0.49241140215716483
-0.49241140215716483
-0.4939137134052387
-0.4939137134052387
-0.4939137134052387
-0.4919491525423729
-0.4919491525423729
-0.4919491525423729
-0.4950693374422188
-0.4950693374422188
-0.4950693374422188
-0.4934514637904468
-0.4934514637904468
-0.4926425269645609
-0.4926425269645609
-0.49160246533127894
-0.49160246533127894
-0.49160246533127894
-0.43474576271186427
-0.43474576271186427
-0.43474576271186427
-0.33501540832049304
-0.33501540832049304
-0.28832819722650216
-0.28832819722650216
-0.38898305084745766
-0.38898305084745766
-0.38898305084745766
-0.6440292758089368
-0.6440292758089368
-0.7712634822804314
-0.7712634822804314
-0.7750770416024653
-0.7750770416024653
-0.6184899845916795
-0.6184899845916795
-0.6184899845916795
-0.4927580893682588
-0.4927580893682588
-0.4927580893682588
-0.4883667180277351
-0.4883667180277351
-0.4983050847457626
-0.4983050847457626
-0.5033898305084746
-0.5033898305084746
-0.5033898305084746
-0.5080123266563945
-0.5080123266563945
-0.5080123266563945
-0.5088212634822804
-0.5088212634822804
-0.5088212634822804
-0.5148305084745762
-0.5148305084745762
-0.5107858243451464
-0.5107858243451464
-0.5065100154083205
-0.5065100154083205
-0.5020030816640986
-0.5020030816640986
-0.5020030816640986
-0.4929892141756549
-0.4929892141756549
-0.4929892141756549
-0.4977272727272726
-0.4977272727272726
-0.4977272727272726
-0.5009630200308166
-0.5009630200308166
-0.5127503852080123
-0.5127503852080123
-0.5253466872110941
-0.5253466872110941
-0.5253466872110941
-0.5166795069337442
-0.5166795069337442
-0.5166795069337442
-0.5141371340523884
-0.5141371340523884
-0.5142526964560863
-0.5142526964560863
-0.5120570107858242
-0.5120570107858242
-0.5140215716486903
-0.5140215716486903
-0.5140215716486903
-0.5098613251155625
-0.5098613251155625
-0.5162172573189523
-0.5162172573189523
-0.5162172573189523
-0.5189907550077041
-0.5189907550077041
-0.5189907550077041
-0.5147149460708782
-0.5147149460708782
-0.5096302003081664
-0.5096302003081664
-0.490562403697997
-0.490562403697997
-0.4821263482280431
-0.4821263482280431
-0.4821263482280431
-0.48663328197226496
-0.48663328197226496
-0.48663328197226496
-0.4821263482280431
-0.4821263482280431
-0.4821263482280431
-0.4801617873651771
-0.4801617873651771
-0.4828197226502311
-0.4828197226502311
-0.48293528505392924
-0.48293528505392924
-0.48258859784283525
-0.48258859784283525
-0.48258859784283525
-0.4780816640986132
-0.4780816640986132
-0.4780816640986132
-0.4776194144838213
-0.4776194144838213
-0.4721879815100154
-0.4721879815100154
-0.4721879815100154
-0.46409861325115553
-0.46409861325115553
-0.4679121725731896
-0.4679121725731896
-0.4679121725731896
-0.4666409861325116
-0.4666409861325116
-0.47392141756548534
-0.47392141756548534
-0.4876733436055469
-0.4876733436055469
-0.4876733436055469
-0.47819722650231133
-0.47819722650231133
-0.47461479198767353
-0.47461479198767353
-0.47461479198767353
-0.47519260400616314
-0.47091679506933737
-0.47091679506933737
-0.47091679506933737
-0.4776194144838213
-0.4776194144838213
-0.4776194144838213
-0.4776194144838213
-0.4776194144838213
-0.48258859784283525
-0.48258859784283525
-0.47623266563944533
-0.47623266563944533
-0.47623266563944533
-0.46768104776579356
-0.46768104776579356
-0.46768104776579356
-0.47080123266563945
-0.47080123266563945
-0.47080123266563945
-0.4666409861325116
-0.4666409861325116
-0.46929892141756535
-0.46929892141756535
-0.47669491525423746
-0.47669491525423746
-0.48108628659476116
-0.48108628659476116
-0.48108628659476116
-0.484899845916795
-0.484899845916795
-0.484899845916795
-0.48501540832049317
-0.48501540832049317
-0.48339753466872115
-0.48339753466872115
-0.48339753466872115
-0.48697996918335895
-0.48697996918335895
-0.490562403697997
-0.490562403697997
-0.490562403697997
-0.4961093990755008
-0.4961093990755008
-0.4961093990755008
-0.4961093990755008
-0.4988828967642527
-0.4988828967642527
-0.5030431432973805
-0.5030431432973805
-0.5030431432973805
-0.5022342064714946
-0.5022342064714946
-0.5070878274268105
-0.5070878274268105
-0.5126348228043143
-0.5126348228043143
-0.5126348228043143
-0.5102080123266564
-0.5102080123266564
-0.5102080123266564
-0.5103235747303545
-0.5103235747303545
-0.5017719568567027
-0.5017719568567027
-0.49726502311248066
-0.49726502311248066
-0.4985362095531587
-0.4985362095531587
-0.4985362095531587
-0.49010015408320506
-0.49010015408320506
-0.49010015408320506
-0.49761171032357465
-0.49761171032357465
-0.49645608628659477
-0.49645608628659477
-0.49449152542372876
-0.49449152542372876
-0.49518489984591674
-0.49518489984591674
-0.49518489984591674
-0.48813559322033884
-0.48813559322033884
-0.48813559322033884
-0.4935670261941447
-0.4935670261941447
-0.492526964560863
-0.492526964560863
-0.492526964560863
-0.4934514637904468
-0.4934514637904468
-0.49911402157164875
-0.49911402157164875
-0.49911402157164875
-0.49992295839753464
-0.49992295839753464
-0.5044298921417566
-0.5044298921417566
-0.5037365177195685
-0.5037365177195685
-0.5037365177195685
-0.4985362095531587
-0.4985362095531587
-0.4985362095531587
-0.5009630200308166
-0.5009630200308166
-0.4985362095531587
-0.4985362095531587
-0.5002696456086286
-0.5002696456086286
-0.5002696456086286
-0.4978428351309707
-0.4978428351309707
-0.4978428351309707
-0.4939137134052387
-0.4939137134052387
-0.4939137134052387
-0.5043143297380586
-0.5043143297380586
-0.5029275808936826
-0.5029275808936826
-0.4977272727272726
-0.4977272727272726
-0.49865177195685684
-0.49865177195685684
-0.49865177195685684
-0.49865177195685684
-0.49564714946070865
-0.49564714946070865
-0.5001540832049307
-0.5001540832049307
-0.5088212634822804
-0.5088212634822804
-0.5088212634822804
-0.5135593220338983
-0.5135593220338983
-0.5121725731895224
-0.5121725731895224
-0.5121725731895224
-0.5078967642526964
-0.5078967642526964
-0.5142526964560863
-0.5142526964560863
-0.5142526964560863
-0.5119414483821264
-0.5119414483821264
-0.5008474576271186
-0.5008474576271186
-0.5037365177195685
-0.5037365177195685
-0.5037365177195685
-0.5090523882896765
-0.5090523882896765
-0.4981895223420647
-0.4981895223420647
-0.4981895223420647
-0.4300077041602466
-0.4300077041602466
-0.4300077041602466
-0.3182588597842835
-0.3182588597842835
-0.2966486902927581
-0.2966486902927581
-0.46016949152542375
-0.46016949152542375
-0.714984591679507
-0.714984591679507
-0.714984591679507
-0.789175654853621
-0.789175654853621
-0.789175654853621
-0.789175654853621
-0.714406779661017
-0.714406779661017
-0.5551617873651773
-0.5551617873651773
-0.4854776579352851
-0.4854776579352851
-0.5104391371340523
-0.5104391371340523
-0.5104391371340523
-0.5263867488443761
-0.5263867488443761
-0.5263867488443761
-0.5135593220338983
-0.5135593220338983
-0.5088212634822804
-0.5088212634822804
-0.5109013867488444
-0.5109013867488444
-0.5053543913713405
-0.5053543913713405
-0.5053543913713405
-0.5106702619414484
-0.5106702619414484
-0.5048921417565486
-0.5048921417565486
-0.5048921417565486
-0.5009630200308166
-0.5009630200308166
-0.5009630200308166
-0.5068567026194144
-0.5068567026194144
-0.5089368258859783
-0.5089368258859783
-0.5085901386748845
-0.5085901386748845
-0.5017719568567027
-0.5017719568567027
-0.5017719568567027
-0.49946070878274273
-0.49946070878274273
-0.49946070878274273
-0.5033898305084746
-0.5033898305084746
-0.5135593220338983
-0.5135593220338983
-0.5289291217257319
-0.5289291217257319
-0.5374807395993837
-0.5374807395993837
-0.5374807395993837
-0.5330893682588598
-0.5330893682588598
-0.5330893682588598
-0.5364406779661017
-0.5364406779661017
-0.5364406779661017
-0.52673343605547
-0.52673343605547
-0.523382126348228
-0.523382126348228
-0.5262711864406779
-0.521879815100154
-0.5145993836671803
-0.5145993836671803
-0.5045454545454544
-0.5045454545454544
-0.5045454545454544
-0.49287365177195674
-0.49287365177195674
-0.47681047765793516
-0.47681047765793516
-0.4530046224961479
-0.4530046224961479
-0.4530046224961479
-0.4576271186440677
-0.4576271186440677
-0.4718412942989214
-0.4718412942989214
-0.4718412942989214
-0.47819722650231133
-0.47819722650231133
-0.47912172573189515
-0.47912172573189515
-0.47507704160246544
-0.47507704160246544
-0.47507704160246544
-0.4726502311248073
-0.4726502311248073
-0.46999229583975355
-0.46999229583975355
-0.46999229583975355
-0.4588983050847457
-0.4588983050847457
-0.4588983050847457
-0.4599383667180277
-0.4599383667180277
-0.46178736517719576
-0.46178736517719576
-0.4568181818181818
-0.4568181818181818
-0.4568181818181818
-0.4543913713405239
-0.4543913713405239
-0.4543913713405239
-0.4451463790446841
-0.4451463790446841
-0.4451463790446841
-0.44410631741140216
-0.44410631741140216
-0.43543913713405247
-0.43543913713405247
-0.4411016949152542
-0.4411016949152542
-0.45462249614791994
-0.45462249614791994
-0.45462249614791994
-0.46525423728813564
-0.46525423728813564
-0.46525423728813564
-0.4679121725731896
-0.4679121725731896
-0.4619029275808937
-0.4619029275808937
-0.4619029275808937
-0.46178736517719576
-0.46178736517719576
-0.47080123266563945
-0.47080123266563945
-0.47195685670261933
-0.47195685670261933
-0.47195685670261933
-0.4749614791987673
-0.4749614791987673
-0.4801617873651771
-0.4801617873651771
-0.4801617873651771
-0.4784283513097072
-0.4784283513097072
-0.4784283513097072
-0.48258859784283525
-0.48270416024653295
-0.48270416024653295
-0.47900616332819723
-0.47900616332819723
-0.47900616332819723
-0.47900616332819723
-0.47669491525423746
-0.47669491525423746
-0.47669491525423746
-0.47669491525423746
-0.4631741140215717
-0.4631741140215717
-0.4631741140215717
-0.46328967642526964
-0.46328967642526964
-0.46328967642526964
-0.4579738058551619
-0.4579738058551619
-0.4579738058551619
-0.4579738058551619
-0.47045454545454546
-0.47045454545454546
-0.47045454545454546
-0.47045454545454546
-0.47045454545454546
-0.491140215716487
-0.491140215716487
-0.491140215716487
-0.4906779661016949
-0.4906779661016949
-0.4906779661016949
-0.4906779661016949
-0.49449152542372876
-0.49449152542372876
-0.49449152542372876
-0.4929892141756549
-0.4929892141756549
-0.4929892141756549
-0.4929892141756549
-0.4929892141756549
-0.4929892141756549
-0.48143297380585515
-0.48143297380585515
-0.48143297380585515
-0.4880200308166409
-0.4880200308166409
-0.4880200308166409
-0.4880200308166409
-0.4533513097072419
-0.4533513097072419
-0.4533513097072419
-0.3620570107858243
-0.3620570107858243
-0.3620570107858243
-0.3620570107858243
-0.3620570107858243
-0.30820493066255783
-0.30820493066255783
-0.30820493066255783
-0.30820493066255783
-0.3625192604006162
-0.3625192604006162
-0.3625192604006162
-0.6000000000000001
-0.6000000000000001
-0.6000000000000001
-0.6000000000000001
-0.7453775038520802
-0.7453775038520802
-0.7453775038520802
-0.7453775038520802
-0.7453775038520802
-0.7605161787365178
-0.7605161787365178
-0.7605161787365178
-0.7605161787365178
-0.640677966101695
-0.640677966101695
-0.640677966101695
-0.4714946070878274
-0.4714946070878274
-0.4714946070878274
-0.4714946070878274
-0.44757318952234204
-0.44757318952234204
-0.44757318952234204
-0.44757318952234204
-0.44757318952234204
-0.4702234206471494
-0.4702234206471494
-0.4702234206471494
-0.4702234206471494
-0.4773882896764252
-0.4773882896764252
-0.4773882896764252
-0.4795839753466873
-0.4795839753466873
-0.4795839753466873
-0.4808551617873653
-0.4808551617873653
-0.4808551617873653
-0.4808551617873653
-0.4846687211093992
-0.4846687211093992
-0.4846687211093992
-0.4846687211093992
-0.4846687211093992
-0.48097072419106324
-0.48097072419106324
-0.4784283513097072
-0.4784283513097072
-0.48432203389830497
-0.48432203389830497
-0.48432203389830497
-0.4846687211093992
-0.4846687211093992
-0.4883667180277351
-0.4883667180277351
-0.4883667180277351
-0.4883667180277351
-0.49437596302003084
-0.49437596302003084
-0.49564714946070865
-0.49564714946070865
-0.49564714946070865
-0.4980739599383668
-0.4980739599383668
-0.48975346687211085
-0.48975346687211085
-0.48975346687211085
-0.4864021571648689
-0.4864021571648689
-0.4864021571648689
-0.48894453004622496
-0.48894453004622496
-0.5036209553158706
-0.5036209553158706
-0.5036209553158706
-0.5081278890600924
-0.5081278890600924
-0.5081278890600924
-0.5085901386748845
-0.5085901386748845
-0.49946070878274273
-0.49946070878274273
-0.5043143297380586
-0.5043143297380586
-0.5043143297380586
-0.49749614791987673
-0.49749614791987673
-0.49749614791987673
-0.49749614791987673
-0.4942604006163329
-0.4942604006163329
-0.4942604006163329
-0.489175654853621
-0.489175654853621
-0.4682588597842834
-0.4682588597842834
-0.4682588597842834
-0.46756548536209563
-0.46756548536209563
-0.4584360554699538
-0.4584360554699538
-0.4584360554699538
-0.4564714946070878
-0.4564714946070878
-0.4564714946070878
-0.46733436055469957
-0.46733436055469957
-0.4620184899845916
-0.4620184899845916
-0.4620184899845916
-0.4583204930662559
-0.4583204930662559
-0.45947611710323577
-0.45947611710323577
-0.45947611710323577
-0.46409861325115553
-0.46409861325115553
-0.4744992295839754
-0.4744992295839754
-0.4744992295839754
-0.4740369799691835
-0.4740369799691835
-0.4740369799691835
-0.46768104776579356
-0.46768104776579356
-0.46768104776579356
-0.46028505392912167
-0.46028505392912167
-0.45242681047765787
-0.45242681047765787
-0.45242681047765787
-0.45670261941448387
-0.45670261941448387
-0.45670261941448387
-0.4501155624036979
-0.4501155624036979
-0.4501155624036979
-0.4521956856702618
-0.4521956856702618
-0.4521956856702618
-0.453235747303544
-0.453235747303544
-0.45739599383667184
-0.45739599383667184
-0.45739599383667184
-0.46016949152542375
-0.46016949152542375
-0.4579738058551619
-0.4579738058551619
-0.4579738058551619
-0.4638674884437597
-0.4638674884437597
-0.4638674884437597
-0.47322804314329736
-0.47322804314329736
-0.46918335901386765
-0.46918335901386765
-0.46918335901386765
-0.4740369799691835
-0.4740369799691835
-0.4780816640986132
-0.4780816640986132
-0.4780816640986132
-0.47195685670261933
-0.47195685670261933
-0.46929892141756535
-0.46929892141756535
-0.46929892141756535
-0.4721879815100154
-0.4721879815100154
-0.4721879815100154
-0.47946841294298914
-0.47946841294298914
-0.47946841294298914
-0.4756548536209553
-0.4756548536209553
-0.4643297380585516
-0.4643297380585516
-0.47161016949152534
-0.47161016949152534
-0.47161016949152534
-0.4723035439137133
-0.4723035439137133
-0.4723035439137133
-0.4723035439137133
-0.47114791987673343
-0.47114791987673343
-0.47392141756548534
-0.47392141756548534
-0.47392141756548534
-0.4672187981510014
-0.4672187981510014
-0.4788906009244993
-0.4788906009244993
-0.4788906009244993
-0.491140215716487
-0.491140215716487
-0.491140215716487
-0.489175654853621
-0.489175654853621
-0.489175654853621
-0.4931047765793528
-0.4931047765793528
-0.4860554699537749
-0.4860554699537749
-0.4860554699537749
-0.48108628659476116
-0.48108628659476116
-0.4765793528505393
-0.4765793528505393
-0.4765793528505393
-0.4765793528505393
-0.4765793528505393
-0.4867488443759631
-0.4867488443759631
-0.4867488443759631
-0.4867488443759631
-0.4823574730354392
-0.4823574730354392
-0.4831664098613251
-0.4831664098613251
-0.48732665639445294
-0.48732665639445294
-0.48732665639445294
-0.4780816640986132
-0.4780816640986132
-0.4815485362095533
-0.4815485362095533
-0.4815485362095533
-0.4815485362095533
-0.4723035439137133
-0.4723035439137133
-0.47750385208012336
-0.47750385208012336
-0.47750385208012336
-0.4883667180277351
-0.4883667180277351
-0.489175654853621
-0.489175654853621
-0.489175654853621
-0.49680277349768875
-0.49680277349768875
-0.49680277349768875
-0.490562403697997
-0.490562403697997
-0.490562403697997
-0.48697996918335895
-0.48697996918335895
-0.48697996918335895
-0.48697996918335895
-0.48073959938366717
-0.48073959938366717
-0.48073959938366717
-0.4867488443759631
-0.4867488443759631
-0.4867488443759631
-0.48455315870570104
-0.48455315870570104
-0.48374422187981514
-0.48374422187981514
-0.48374422187981514
-0.488251155624037
-0.488251155624037
-0.488251155624037
-0.48686440677966103
-0.48686440677966103
-0.492180277349769
-0.492180277349769
-0.492180277349769
-0.49044684129429905
-0.49044684129429905
-0.48073959938366717
-0.48073959938366717
-0.48073959938366717
-0.492526964560863
-0.492526964560863
-0.492526964560863
-0.5001540832049307
-0.5001540832049307
-0.5001540832049307
-0.5035053929121724
-0.5035053929121724
-0.5051232665639445
-0.5051232665639445
-0.5051232665639445
-0.49865177195685684
-0.49865177195685684
-0.49865177195685684
-0.5057010785824345
-0.5057010785824345
-0.5057010785824345
-0.5053543913713405
-0.5053543913713405
-0.5053543913713405
-0.5028120184899847
-0.5028120184899847
-0.5063944530046225
-0.5063944530046225
-0.5063944530046225
-0.5025808936825886
-0.5025808936825886
-0.5025808936825886
-0.5047765793528505
-0.5047765793528505
-0.5047765793528505
-0.5031587057010786
-0.5031587057010786
-0.5006163328197226
-0.5006163328197226
-0.5006163328197226
-0.5114791987673344
-0.5114791987673344
-0.5106702619414484
-0.5106702619414484
-0.5106702619414484
-0.5100924499229584
-0.5100924499229584
-0.5100924499229584
-0.49946070878274273
-0.49946070878274273
-0.4957627118644068
-0.4957627118644068
-0.4957627118644068
-0.5088212634822804
-0.5088212634822804
-0.5088212634822804
-0.5092835130970725
-0.5092835130970725
-0.5091679506933744
-0.5091679506933744
-0.5051232665639445
-0.5051232665639445
-0.5051232665639445
-0.5007318952234208
-0.5007318952234208
-0.5007318952234208
-0.5076656394453005
-0.5076656394453005
-0.5076656394453005
-0.4672187981510014
-0.4672187981510014
-0.4018104776579352
-0.4018104776579352
-0.4018104776579352
-0.3738443759630199
-0.3738443759630199
-0.3738443759630199
-0.40389060092449913
-0.40389060092449913
-0.40389060092449913
-0.6097072419106317
-0.6097072419106317
-0.6097072419106317
-0.7591294298921418
-0.7591294298921418
-0.7260785824345146
-0.7260785824345146
-0.7260785824345146
-0.5942218798151002
-0.5942218798151002
-0.48582434514637907
-0.48582434514637907
-0.48582434514637907
-0.4799306625577813
-0.4799306625577813
-0.5029275808936826
-0.5029275808936826
-0.5029275808936826
-0.5093990755007703
-0.5093990755007703
-0.5093990755007703
-0.5135593220338983
-0.5135593220338983
-0.5110169491525423
-0.5110169491525423
-0.5110169491525423
-0.5109013867488444
-0.5109013867488444
-0.5184129429892143
-0.5184129429892143
-0.5184129429892143
-0.5178351309707243
-0.5178351309707243
-0.5178351309707243
-0.5201463790446841
-0.5201463790446841
-0.5152927580893683
-0.5152927580893683
-0.5152927580893683
-0.5112480739599383
-0.5112480739599383
-0.5147149460708782
-0.5147149460708782
-0.5147149460708782
-0.5117103235747303
-0.5117103235747303
-0.5117103235747303
-0.5089368258859783
-0.5089368258859783
-0.5089368258859783
-0.5041987673343605
-0.5041987673343605
-0.5025808936825886
-0.5025808936825886
-0.5025808936825886
-0.5191063174114021
-0.5191063174114021
-0.5191063174114021
-0.525231124807396
-0.525231124807396
-0.525231124807396
-0.5318181818181817
-0.5318181818181817
-0.5372496147919876
-0.5372496147919876
-0.5372496147919876
-0.5328582434514637
-0.5328582434514637
-0.5341294298921417
-0.5341294298921417
-0.5341294298921417
-0.5341294298921417
-0.5311248073959939
-0.5311248073959939
-0.5311248073959939
-0.5260400616332819
-0.5260400616332819
-0.5254622496147919
-0.5254622496147919
-0.5254622496147919
-0.5159861325115562
-0.5159861325115562
-0.5159861325115562
-0.5109013867488444
-0.5109013867488444
-0.5009630200308166
-0.5009630200308166
-0.5009630200308166
-0.4874422187981511
-0.4874422187981511
-0.48686440677966103
-0.48686440677966103
-0.48686440677966103
-0.48143297380585515
-0.48143297380585515
-0.48143297380585515
-0.4835130970724191
-0.4835130970724191
-0.4835130970724191
-0.487904468412943
-0.487904468412943
-0.48582434514637907
-0.48582434514637907
-0.48582434514637907
-0.4970338983050848
-0.4970338983050848
-0.4970338983050848
-0.4961093990755008
-0.4961093990755008
-0.4961093990755008
-0.4899845916795069
-0.4899845916795069
-0.4899845916795069
-0.490562403697997
-0.490562403697997
-0.4821263482280431
-0.4821263482280431
-0.4796995377503852
-0.4796995377503852
-0.4796995377503852
-0.47519260400616314
-0.47519260400616314
-0.47519260400616314
-0.47519260400616314
-0.4658320493066257
-0.4658320493066257
-0.4697611710323575
-0.4697611710323575
-0.4697611710323575
-0.46814329738058547
-0.46814329738058547
-0.46999229583975355
-0.46999229583975355
-0.46999229583975355
-0.4757704160246532
-0.4757704160246532
-0.4757704160246532
-0.4729969183359015
-0.4729969183359015
-0.47461479198767353
-0.47461479198767353
-0.4731124807395992
-0.4731124807395992
-0.4731124807395992
-0.4744992295839754
-0.4744992295839754
-0.4821263482280431
-0.4821263482280431
-0.4821263482280431
-0.48143297380585515
-0.48143297380585515
-0.48778890600924507
-0.48778890600924507
-0.48778890600924507
-0.48536209553158693
-0.48536209553158693
-0.48536209553158693
-0.4816640986132512
-0.4816640986132512
-0.4828197226502311
-0.4828197226502311
-0.4828197226502311
-0.4785439137134051
-0.4785439137134051
-0.4801617873651771
-0.4801617873651771
-0.4801617873651771
-0.4801617873651771
-0.4821263482280431
-0.4821263482280431
-0.4910246533127889
-0.4910246533127889
-0.4910246533127889
-0.5044298921417566
-0.5044298921417566
-0.5044298921417566
-0.5075500770416025
-0.5075500770416025
-0.5099768875192603
-0.5099768875192603
-0.5099768875192603
-0.5099768875192603
-0.5124036979969184
-0.5124036979969184
-0.5009630200308166
-0.5009630200308166
-0.5001540832049307
-0.5001540832049307
-0.5001540832049307
-0.5052388289676425
-0.5052388289676425
-0.5052388289676425
-0.5043143297380586
-0.5043143297380586
-0.5043143297380586
-0.5059322033898306
-0.5059322033898306
-0.49922958397534667
-0.49922958397534667
-0.49922958397534667
-0.5007318952234208
-0.5007318952234208
-0.5007318952234208
-0.4985362095531587
-0.4985362095531587
-0.49483821263482275
-0.49483821263482275
-0.4957627118644068
-0.4957627118644068
-0.4957627118644068
-0.48894453004622496
-0.48894453004622496
-0.48894453004622496
-0.4980739599383668
-0.4980739599383668
-0.4980739599383668
-0.5067411402157165
-0.5067411402157165
-0.5067411402157165
-0.5046610169491526
-0.5046610169491526
-0.5127503852080123
-0.5127503852080123
-0.5128659476117103
-0.5128659476117103
-0.5128659476117103
-0.5128659476117103
-0.5137904468412943
-0.5137904468412943
-0.5137904468412943
-0.5081278890600924
-0.5081278890600924
-0.49876733436055476
-0.49876733436055476
-0.49876733436055476
-0.4969183359013867
-0.4969183359013867
-0.49021571648690276
-0.49021571648690276
-0.49021571648690276
-0.485593220338983
-0.485593220338983
-0.485593220338983
-0.490562403697997
-0.490562403697997
-0.49090909090909096
-0.49090909090909096
-0.49090909090909096
-0.49287365177195674
-0.49287365177195674
-0.49287365177195674
-0.4919491525423729
-0.4919491525423729
-0.48385978428351306
-0.48385978428351306
-0.48385978428351306
-0.49714946070878274
-0.49714946070878274
-0.5073189522342064
-0.5073189522342064
-0.5073189522342064
-0.5073189522342064
-0.5080123266563945
-0.5080123266563945
-0.5080123266563945
-0.5093990755007703
-0.5093990755007703
-0.5135593220338983
-0.5135593220338983
-0.5177195685670262
-0.5177195685670262
-0.5177195685670262
-0.5084745762711864
-0.5084745762711864
-0.5084745762711864
-0.5054699537750386
-0.5054699537750386
-0.5054699537750386
-0.5041987673343605
-0.5041987673343605
-0.5041987673343605
-0.4955315870570107
-0.4955315870570107
-0.4989984591679506
-0.4989984591679506
-0.5016563944530046
-0.5016563944530046
-0.5016563944530046
-0.5026964560862865
-0.5026964560862865
-0.5026964560862865
-0.5111325115562404
-0.5111325115562404
-0.5111325115562404
-0.5053543913713405
-0.5053543913713405
-0.5048921417565486
-0.5048921417565486
-0.5048921417565486
-0.5107858243451464
-0.5107858243451464
-0.5107858243451464
-0.5125192604006163
-0.5125192604006163
-0.5170261941448382
-0.5170261941448382
-0.5170261941448382
-0.522342064714946
-0.522342064714946
-0.522342064714946
-0.5243066255778119
-0.5243066255778119
-0.4651386748844375
-0.4651386748844375
-0.4651386748844375
-0.34541602465331267
-0.34541602465331267
-0.28243451463790437
-0.28243451463790437
-0.28243451463790437
-0.378929121725732
-0.378929121725732
-0.378929121725732
-0.6448382126348229
-0.6448382126348229
-0.6448382126348229
-0.7703389830508475
-0.7703389830508475
-0.7385593220338982
-0.7385593220338982
-0.5884437596302002
-0.5884437596302002
-0.5884437596302002
-0.4714946070878274
-0.4714946070878274
-0.4714946070878274
-0.4714946070878274
-0.46964560862865956
-0.46964560862865956
-0.49044684129429905
-0.49044684129429905
-0.49044684129429905
-0.48732665639445294
-0.48732665639445294
-0.5044298921417566
-0.5044298921417566
-0.5044298921417566
-0.5151771956856703
-0.5151771956856703
-0.5151771956856703
-0.5197996918335901
-0.5197996918335901
-0.5337827426810478
-0.5337827426810478
-0.5337827426810478
-0.5321648690292758
-0.5321648690292758
-0.5321648690292758
-0.5308936825885978
-0.5308936825885978
-0.5288135593220339
-0.5288135593220339
-0.5288135593220339
-0.5193374422187982
-0.5193374422187982
-0.5178351309707243
-0.5178351309707243
-0.5178351309707243
-0.5178351309707243
-0.5092835130970725
-0.5092835130970725
-0.5092835130970725
-0.5053543913713405
-0.5053543913713405
-0.5106702619414484
-0.5106702619414484
-0.5076656394453005
-0.5076656394453005
-0.5076656394453005
-0.5119414483821264
-0.5119414483821264
-0.5119414483821264
-0.5204930662557782
-0.5204930662557782
-0.5204930662557782
-0.5262711864406779
-0.5262711864406779
-0.5262711864406779
-0.5300847457627119
-0.5300847457627119
-0.525231124807396
-0.525231124807396
-0.525231124807396
-0.5387519260400615
-0.5387519260400615
-0.5387519260400615
-0.5555084745762712
-0.5555084745762712
-0.5555084745762712
-0.5605932203389832
-0.5605932203389832
-0.5545839753466872
-0.5545839753466872
-0.5545839753466872
-0.5421032357473035
-0.5421032357473035
-0.5421032357473035
-0.524537750385208
-0.524537750385208
-0.5088212634822804
-0.5088212634822804
-0.5088212634822804
-0.48420647149460727
-0.48420647149460727
-0.4726502311248073
-0.4726502311248073
-0.4726502311248073
-0.4674499229583975
-0.4674499229583975
-0.4674499229583975
-0.46097842835130964
-0.46097842835130964
-0.4651386748844375
-0.4651386748844375
-0.4651386748844375
-0.46051617873651773
-0.46051617873651773
-0.46305855161787357
-0.46305855161787357
-0.4623651771956856
-0.4623651771956856
-0.453582434514638
-0.453582434514638
-0.453582434514638
-0.4597072419106316
-0.4597072419106316
-0.4588983050847457
-0.4588983050847457
-0.4588983050847457
-0.4619029275808937
-0.4619029275808937
-0.4619029275808937
-0.47519260400616314
-0.47519260400616314
-0.47519260400616314
-0.47473035439137123
-0.47473035439137123
-0.4816640986132512
-0.4816640986132512
-0.4816640986132512
-0.4712634822804316
-0.4712634822804316
-0.4623651771956856
-0.4623651771956856
-0.4623651771956856
-0.4623651771956856
-0.4639830508474576
-0.4639830508474576
-0.45462249614791994
-0.45462249614791994
-0.45057781201849
-0.45057781201849
-0.45057781201849
-0.44722650231124805
-0.44722650231124805
-0.44722650231124805
-0.4438751926040061
-0.4438751926040061
-0.4438751926040061
-0.45115562403697984
-0.45115562403697984
-0.45427580893682595
-0.45427580893682595
-0.45427580893682595
-0.4592449922958397
-0.4592449922958397
-0.4592449922958397
-0.46571648690292755
-0.46895223420647136
-0.46895223420647136
-0.46895223420647136
-0.4764637904468412
-0.4764637904468412
-0.47553929121725735
-0.47553929121725735
-0.47553929121725735
-0.47553929121725735
-0.4749614791987673
-0.4749614791987673
-0.4749614791987673
-0.47669491525423746
-0.47669491525423746
-0.4867488443759631
-0.4867488443759631
-0.4926425269645609
-0.4926425269645609
-0.4926425269645609
-0.4890600924499229
-0.4890600924499229
-0.4890600924499229
-0.4840909090909091
-0.4840909090909091
-0.4840909090909091
-0.4780816640986132
-0.4780816640986132
-0.4721879815100154
-0.4721879815100154
-0.4721879815100154
-0.4748459167950694
-0.4748459167950694
-0.4698767334360554
-0.4698767334360554
-0.4698767334360554
-0.46409861325115553
-0.46409861325115553
-0.46409861325115553
-0.4723035439137133
-0.4723035439137133
-0.4785439137134051
-0.4785439137134051
-0.4785439137134051
-0.4793528505392912
-0.4793528505392912
-0.4793528505392912
-0.4793528505392912
-0.4793528505392912
-0.4793528505392912
-0.4764637904468412
-0.4764637904468412
-0.48501540832049317
-0.48501540832049317
-0.4778505392912171
-0.4778505392912171
-0.4778505392912171
-0.4778505392912171
-0.4770416024653312
-0.4770416024653312
-0.49449152542372876
-0.49449152542372876
-0.5039676425269646
-0.5039676425269646
-0.5039676425269646
-0.49368258859784286
-0.49368258859784286
-0.49368258859784286
-0.43151001540832046
-0.43151001540832046
-0.43151001540832046
-0.33224191063174113
-0.33224191063174113
-0.2943374422187981
-0.2943374422187981
-0.2943374422187981
-0.4053929121725732
-0.4053929121725732
-0.6599768875192604
-0.6599768875192604
-0.6599768875192604
-0.7577426810477658
-0.7577426810477658
-0.7577426810477658
-0.7577426810477658
-0.7402927580893682
-0.7402927580893682
-0.595493066255778
-0.595493066255778
-0.595493066255778
-0.46918335901386765
-0.46918335901386765
-0.46606317411402154
-0.46606317411402154
-0.46606317411402154
-0.4860554699537749
-0.4860554699537749
-0.4860554699537749
-0.4805084745762711
-0.4805084745762711
-0.483281972265023
-0.483281972265023
-0.483281972265023
-0.48848228043143305
-0.48848228043143305
-0.48848228043143305
-0.48293528505392924
-0.48293528505392924
-0.48189522342064706
-0.48189522342064706
-0.48189522342064706
-0.48189522342064706
-0.4846687211093992
-0.4846687211093992
-0.4846687211093992
-0.4846687211093992
-0.4846687211093992
-0.483975346687211
-0.483975346687211
-0.483975346687211
-0.487557781201849
-0.487557781201849
-0.4942604006163329
-0.4942604006163329
-0.4942604006163329
-0.48536209553158693
-0.48536209553158693
-0.48536209553158693
-0.4883667180277351
-0.4883667180277351
-0.4927580893682588
-0.4927580893682588
-0.4927580893682588
-0.49010015408320506
-0.49010015408320506
-0.49010015408320506
-0.49992295839753464
-0.49992295839753464
-0.5044298921417566
-0.5044298921417566
-0.5044298921417566
-0.5113636363636365
-0.5113636363636365
-0.5132126348228043
-0.5132126348228043
-0.5132126348228043
-0.5127503852080123
-0.5127503852080123
-0.5127503852080123
-0.5149460708782743
-0.5149460708782743
-0.5149460708782743
-0.5164483821263481
-0.5164483821263481
-0.5106702619414484
-0.5106702619414484
-0.5106702619414484
-0.5081278890600924
-0.5081278890600924
-0.5081278890600924
-0.4824730354391371
-0.4824730354391371
-0.4824730354391371
-0.47831278890600926
-0.47831278890600926
-0.46895223420647136
-0.46895223420647136
-0.46895223420647136
-0.46294298921417565
-0.46294298921417565
-0.4740369799691835
-0.4740369799691835
-0.4740369799691835
-0.4742681047765793
-0.4742681047765793
-0.4742681047765793
-0.48097072419106324
-0.48097072419106324
-0.4800462249614792
-0.4800462249614792
-0.4800462249614792
-0.4780816640986132
-0.4780816640986132
-0.4780816640986132
-0.4800462249614792
-0.4800462249614792
-0.4677966101694915
-0.4677966101694915
-0.4677966101694915
-0.4612095531587057
-0.4612095531587057
-0.4612095531587057
-0.4604006163328198
-0.4604006163328198
-0.4604006163328198
-0.4588983050847457
-0.4588983050847457
-0.4713790446841295
-0.4713790446841295
-0.4669876733436056
-0.4669876733436056
-0.4669876733436056
-0.4600539291217258
-0.4600539291217258
-0.45670261941448387
-0.45670261941448387
-0.45670261941448387
-0.45670261941448387
-0.4702234206471494
-0.4702234206471494
-0.47392141756548534
-0.47392141756548534
-0.47392141756548534
-0.4679121725731896
-0.4679121725731896
-0.46883667180277344
-0.46883667180277344
-0.46883667180277344
-0.47091679506933737
-0.47091679506933737
-0.4773882896764252
-0.4773882896764252
-0.4773882896764252
-0.4808551617873653
-0.4808551617873653
-0.4808551617873653
-0.4801617873651771
-0.4801617873651771
-0.4744992295839754
-0.4744992295839754
-0.4734591679506934
-0.4734591679506934
-0.4734591679506934
-0.47241910631741146
-0.47241910631741146
-0.4733436055469955
-0.4733436055469955
-0.4733436055469955
-0.4733436055469955
-0.4734591679506934
-0.4734591679506934
-0.47033898305084754
-0.47033898305084754
-0.47033898305084754
-0.4778505392912171
-0.4778505392912171
-0.48189522342064706
-0.48189522342064706
-0.48189522342064706
-0.48073959938366717
-0.48073959938366717
-0.48073959938366717
-0.48570878274268114
-0.48570878274268114
-0.48570878274268114
-0.4823574730354392
-0.4823574730354392
-0.4840909090909091
-0.4840909090909091
-0.4840909090909091
-0.48374422187981514
-0.48374422187981514
-0.4795839753466873
-0.4795839753466873
-0.4795839753466873
-0.4815485362095533
-0.4815485362095533
-0.4815485362095533
-0.4718412942989214
-0.4718412942989214
-0.4764637904468412
-0.4764637904468412
-0.4764637904468412
-0.4864021571648689
-0.4864021571648689
-0.4864021571648689
-0.48305084745762716
-0.48305084745762716
-0.49044684129429905
-0.49044684129429905
-0.49044684129429905
-0.4854776579352851
-0.4854776579352851
-0.47981510015408313
-0.47981510015408313
-0.47981510015408313
-0.47981510015408313
-0.48570878274268114
-0.48570878274268114
-0.48570878274268114
-0.48258859784283525
-0.48258859784283525
-0.4876733436055469
-0.4876733436055469
-0.4876733436055469
-0.489522342064715
-0.489522342064715
-0.49241140215716483
-0.49241140215716483
-0.49241140215716483
-0.49160246533127894
-0.49160246533127894
-0.49160246533127894
-0.4847842835130969
-0.4847842835130969
-0.4847842835130969
-0.48258859784283525
-0.48258859784283525
-0.4777349768875192
-0.4777349768875192
-0.48073959938366717
-0.48073959938366717
-0.48073959938366717
-0.4914869029275808
-0.4914869029275808
-0.4914869029275808
-0.487211093990755
-0.487211093990755
-0.487211093990755
-0.4931047765793528
-0.4931047765793528
-0.4962249614791987
-0.4962249614791987
-0.4962249614791987
-0.49946070878274273
-0.49946070878274273
-0.5041987673343605
-0.5041987673343605
-0.5041987673343605
-0.5033898305084746
-0.5033898305084746
-0.5033898305084746
-0.4998073959938365
-0.4998073959938365
-0.4998073959938365
-0.5077812018489984
-0.5077812018489984
-0.4993451463790446
-0.4993451463790446
-0.4954160246533128
-0.4954160246533128
-0.4954160246533128
-0.4988828967642527
-0.4988828967642527
-0.4988828967642527
-0.4914869029275808
-0.4914869029275808
-0.4914869029275808
-0.4910246533127889
-0.4910246533127889
-0.4910246533127889
-0.49761171032357465
-0.49761171032357465
-0.5044298921417566
-0.5044298921417566
-0.49680277349768875
-0.49680277349768875
-0.49680277349768875
-0.49599383667180263
-0.49599383667180263
-0.49599383667180263
-0.49599383667180263
-0.49599383667180263
-0.49599383667180263
-0.44017719568567015
-0.44017719568567015
-0.35708782742681056
-0.35708782742681056
-0.35708782742681056
-0.3381355932203389
-0.3381355932203389
-0.3381355932203389
-0.46652542372881367
-0.46652542372881367
-0.6899075500770415
-0.6899075500770415
-0.6899075500770415
-0.7545069337442218
-0.7545069337442218
-0.7545069337442218
-0.7164869029275809
-0.7164869029275809
-0.7164869029275809
-0.5614021571648691
-0.5614021571648691
-0.4638674884437597
-0.4638674884437597
-0.48027734976887526
-0.48027734976887526
-0.49368258859784286
-0.49368258859784286
-0.49368258859784286
-0.49368258859784286
-0.49206471494607085
-0.49206471494607085
-0.49206471494607085
-0.4957627118644068
-0.4957627118644068
-0.4989984591679506
-0.4989984591679506
-0.4989984591679506
-0.5076656394453005
-0.5076656394453005
-0.5076656394453005
-0.5076656394453005
-0.5156394453004622
-0.5156394453004622
-0.5156394453004622
-0.5156394453004622
-0.5156394453004622
-0.5112480739599383
-0.5112480739599383
-0.5112480739599383
-0.5184129429892143
-0.5184129429892143
-0.5184129429892143
-0.521648690292758
-0.521648690292758
-0.521648690292758
-0.521648690292758
-0.5214175654853621
-0.5214175654853621
-0.5214175654853621
-0.5214175654853621
-0.5214175654853621
-0.5224576271186441
-0.5224576271186441
-0.5224576271186441
-0.5173728813559322
-0.5173728813559322
-0.5173728813559322
-0.5173728813559322
-0.5192218798151002
-0.5192218798151002
-0.5192218798151002
-0.5187596302003081
-0.5187596302003081
-0.5187596302003081
-0.5187596302003081
-0.5187596302003081
-0.5187596302003081
-0.5166795069337442
-0.5166795069337442
-0.5166795069337442
-0.5196841294298922
-0.5196841294298922
-0.5196841294298922
-0.5196841294298922
-0.5133281972265022
-0.5133281972265022
-0.5133281972265022
-0.5150616332819723
-0.5150616332819723
-0.5150616332819723
-0.5150616332819723
-0.5150616332819723
-0.5184129429892143
-0.5184129429892143
-0.5184129429892143
-0.5184129429892143
-0.5207241910631741
-0.5207241910631741
-0.5207241910631741
-0.5348228043143297
-0.5348228043143297
-0.5348228043143297
-0.5348228043143297
-0.5357473035439138
-0.5357473035439138
-0.5357473035439138
-0.5357473035439138
-0.5364406779661017
-0.5364406779661017
-0.5364406779661017
-0.5364406779661017
-0.5364406779661017
-0.5330893682588598
-0.5330893682588598
-0.5330893682588598
-0.5204930662557782
-0.5204930662557782
-0.5204930662557782
-0.5128659476117103
-0.5128659476117103
-0.5128659476117103
-0.5128659476117103
-0.5128659476117103
-0.49449152542372876
-0.49449152542372876
-0.49449152542372876
-0.49449152542372876
-0.4805084745762711
-0.4805084745762711
-0.4805084745762711
-0.4777349768875192
-0.4777349768875192
-0.4777349768875192
-0.4706856702619415
-0.4706856702619415
-0.4706856702619415
-0.4706856702619415
-0.4706856702619415
-0.4677966101694915
-0.4677966101694915
-0.4677966101694915
-0.4677966101694915
-0.46444530046224974
-0.46444530046224974
-0.46444530046224974
-0.46144067796610155
-0.46144067796610155
-0.46144067796610155
-0.46213405238828975
-0.46213405238828975
-0.46213405238828975
-0.46213405238828975
-0.46213405238828975
-0.46837442218798153
-0.46837442218798153
-0.46837442218798153
-0.4780816640986132
-0.4780816640986132
-0.4780816640986132
-0.4780816640986132
-0.47900616332819723
-0.47900616332819723
-0.47900616332819723
-0.4793528505392912
-0.4793528505392912
-0.4793528505392912
-0.4793528505392912
-0.4828197226502311
-0.4828197226502311
-0.4828197226502311
-0.4738058551617874
-0.4738058551617874
-0.4738058551617874
-0.4738058551617874
-0.47080123266563945
-0.47080123266563945
-0.47080123266563945
-0.4721879815100154
-0.4721879815100154
-0.4721879815100154
-0.4721879815100154
-0.46606317411402154
-0.46606317411402154
-0.46606317411402154
-0.4679121725731896
-0.4679121725731896
-0.4679121725731896
-0.4643297380585516
-0.4643297380585516
-0.4643297380585516
-0.45774268104776583
-0.45774268104776583
-0.4593605546995376
-0.4593605546995376
-0.4593605546995376
-0.46051617873651773
-0.46051617873651773
-0.46051617873651773
-0.46571648690292755
-0.46571648690292755
-0.4664098613251155
-0.4664098613251155
-0.47438366718027725
-0.47438366718027725
-0.47438366718027725
-0.49449152542372876
-0.49449152542372876
-0.49449152542372876
-0.49125577812018495
-0.49125577812018495
-0.49125577812018495
-0.49160246533127894
-0.49160246533127894
-0.4933359013867489
-0.4933359013867489
-0.4844375963020031
-0.4844375963020031
-0.4844375963020031
-0.48189522342064706
-0.48189522342064706
-0.48189522342064706
-0.47831278890600926
-0.47831278890600926
-0.4820107858243452
-0.4820107858243452
-0.4820107858243452
-0.48097072419106324
-0.48097072419106324
-0.47461479198767353
-0.47461479198767353
-0.47461479198767353
-0.47623266563944533
-0.47623266563944533
-0.47623266563944533
-0.4717257318952235
-0.4717257318952235
-0.4717257318952235
-0.4721879815100154
-0.4721879815100154
-0.4770416024653312
-0.4770416024653312
-0.4770416024653312
-0.4682588597842834
-0.4682588597842834
-0.4714946070878274
-0.4714946070878274
-0.4714946070878274
-0.4835130970724191
-0.4835130970724191
-0.4840909090909091
-0.4840909090909091
-0.4840909090909091
-0.48848228043143305
-0.48848228043143305
-0.48848228043143305
-0.48848228043143305
-0.48501540832049317
-0.48501540832049317
-0.48813559322033884
-0.48813559322033884
-0.48813559322033884
-0.4978428351309707
-0.4978428351309707
-0.47195685670261933
-0.47195685670261933
-0.47195685670261933
-0.3828582434514638
-0.3828582434514638
-0.3828582434514638
-0.2852080123266565
-0.2852080123266565
-0.2852080123266565
-0.3156009244992295
-0.3156009244992295
-0.5574730354391371
-0.5574730354391371
-0.5574730354391371
-0.7398305084745762
-0.7398305084745762
-0.7398305084745762
-0.7764637904468413
-0.7764637904468413
-0.6563944530046224
-0.6563944530046224
-0.6563944530046224
-0.5040832049306625
-0.5040832049306625
-0.5040832049306625
-0.4876733436055469
-0.4876733436055469
-0.5026964560862865
-0.5026964560862865
-0.5026964560862865
-0.5066255778120186
-0.5066255778120186
-0.5066255778120186
-0.5081278890600924
-0.5081278890600924
-0.5032742681047766
-0.5032742681047766
-0.5032742681047766
-0.5058166409861324
-0.5058166409861324
-0.5058166409861324
-0.5011941448382127
-0.5011941448382127
-0.5005007704160247
-0.5005007704160247
-0.5005007704160247
-0.5058166409861324
-0.5058166409861324
-0.5016563944530046
-0.5016563944530046
-0.5016563944530046
-0.5001540832049307
-0.5001540832049307
-0.5001540832049307
-0.5001540832049307
-0.4953004622496149
-0.4953004622496149
-0.4906779661016949
-0.4906779661016949
-0.4931047765793528
-0.4931047765793528
-0.4931047765793528
-0.49865177195685684
-0.49865177195685684
-0.49865177195685684
-0.5157550077041604
-0.5157550077041604
-0.5247688751926041
-0.5247688751926041
-0.5247688751926041
-0.5263867488443761
-0.5263867488443761
-0.5330893682588598
-0.5330893682588598
-0.5330893682588598
-0.5359784283513098
-0.5359784283513098
-0.5423343605546995
-0.5423343605546995
-0.5423343605546995
-0.5410631741140215
-0.5410631741140215
-0.5336671802773498
-0.5336671802773498
-0.5336671802773498
-0.5365562403697998
-0.5365562403697998
-0.5365562403697998
-0.521879815100154
-0.521879815100154
-0.5088212634822804
-0.5088212634822804
-0.4985362095531587
-0.4985362095531587
-0.4985362095531587
-0.4748459167950694
-0.4748459167950694
-0.4748459167950694
-0.4748459167950694
-0.4643297380585516
-0.4643297380585516
-0.46768104776579356
-0.46768104776579356
-0.46768104776579356
-0.4835130970724191
-0.4835130970724191
-0.4835130970724191
-0.4947226502311248
-0.4947226502311248
-0.48894453004622496
-0.48894453004622496
-0.48894453004622496
-0.4961093990755008
-0.4961093990755008
-0.4961093990755008
-0.4970338983050848
-0.4970338983050848
-0.490562403697997
-0.490562403697997
-0.490562403697997
-0.4862865947611712
-0.4862865947611712
-0.4862865947611712
-0.47912172573189515
-0.47912172573189515
-0.47519260400616314
-0.47519260400616314
-0.4734591679506934
-0.4734591679506934
-0.4734591679506934
-0.4643297380585516
-0.4643297380585516
-0.4643297380585516
-0.45624036979969196
-0.45624036979969196
-0.448959938366718
-0.448959938366718
-0.4494221879815101
-0.4494221879815101
-0.4494221879815101
-0.4592449922958397
-0.4592449922958397
-0.4592449922958397
-0.4714946070878274
-0.4714946070878274
-0.4714946070878274
-0.4831664098613251
-0.4831664098613251
-0.4831664098613251
-0.48929121725731894
-0.48929121725731894
-0.487557781201849
-0.487557781201849
-0.4941448382126348
-0.4941448382126348
-0.4941448382126348
-0.49495377503852067
-0.49495377503852067
-0.49495377503852067
-0.49495377503852067
-0.49495377503852067
-0.4980739599383668
-0.4980739599383668
-0.4980739599383668
-0.4933359013867489
-0.4933359013867489
-0.4933359013867489
-0.49287365177195674
-0.49287365177195674
-0.49044684129429905
-0.49044684129429905
-0.49044684129429905
-0.483281972265023
-0.483281972265023
-0.4801617873651771
-0.4801617873651771
-0.4801617873651771
-0.4712634822804316
-0.4712634822804316
-0.4712634822804316
-0.4712634822804316
-0.4712634822804316
-0.4712634822804316
-0.483975346687211
-0.483975346687211
-0.4985362095531587
-0.4985362095531587
-0.5044298921417566
-0.5044298921417566
-0.5044298921417566
-0.5044298921417566
-0.5028120184899847
-0.5028120184899847
-0.5028120184899847
-0.5059322033898306
-0.5059322033898306
-0.5053543913713405
-0.5053543913713405
-0.5053543913713405
-0.5026964560862865
-0.5026964560862865
-0.5020030816640986
-0.5020030816640986
-0.5020030816640986
-0.49911402157164875
-0.49911402157164875
-0.49911402157164875
-0.4989984591679506
-0.4989984591679506
-0.4939137134052387
-0.4939137134052387
-0.4939137134052387
-0.4870955315870571
-0.4870955315870571
-0.4870955315870571
-0.489175654853621
-0.489175654853621
-0.48813559322033884
-0.48813559322033884
-0.48813559322033884
-0.48501540832049317
-0.48501540832049317
-0.48501540832049317
-0.48686440677966103
-0.48686440677966103
-0.48686440677966103
-0.4903312788906009
-0.4903312788906009
-0.4903312788906009
-0.5099768875192603
-0.5099768875192603
-0.5176040061633282
-0.5176040061633282
-0.5148305084745762
-0.5148305084745762
-0.5148305084745762
-0.5172573189522343
-0.5172573189522343
-0.5172573189522343
-0.5087057010785825
-0.5087057010785825
-0.5087057010785825
-0.5120570107858242
-0.5120570107858242
-0.5120570107858242
-0.5112480739599383
-0.5112480739599383
-0.5066255778120186
-0.5066255778120186
-0.5066255778120186
-0.5046610169491526
-0.5046610169491526
-0.5046610169491526
-0.49634052388289684
-0.49634052388289684
-0.49634052388289684
-0.4929892141756549
-0.4929892141756549
-0.48940677966101687
-0.48940677966101687
-0.48940677966101687
-0.48929121725731894
-0.48929121725731894
-0.49518489984591674
-0.49518489984591674
-0.49518489984591674
-0.46305855161787357
-0.46305855161787357
-0.46305855161787357
-0.3942989214175654
-0.3942989214175654
-0.3329352850539291
-0.3329352850539291
-0.3329352850539291
-0.33790446841294286
-0.33790446841294286
-0.33790446841294286
-0.5329738058551617
-0.5329738058551617
-0.7822419106317411
-0.7822419106317411
-0.7951848998459168
-0.7951848998459168
-0.7951848998459168
-0.6773112480739599
-0.6773112480739599
-0.6773112480739599
-0.6773112480739599
-0.5230354391371341
-0.5230354391371341
-0.5230354391371341
-0.4776194144838213
-0.4776194144838213
-0.4919491525423729
-0.4919491525423729
-0.4919491525423729
-0.4947226502311248
-0.4947226502311248
-0.49957627118644066
-0.49957627118644066
-0.49957627118644066
-0.49957627118644066
-0.489869029275809
-0.489869029275809
-0.48536209553158693
-0.48536209553158693
-0.48536209553158693
-0.488251155624037
-0.488251155624037
-0.48651771956856704
-0.48651771956856704
-0.48651771956856704
-0.4918335901386748
-0.4918335901386748
-0.4918335901386748
-0.5068567026194144
-0.5068567026194144
-0.5247688751926041
-0.5247688751926041
-0.5247688751926041
-0.5384052388289676
-0.5384052388289676
-0.5384052388289676
-0.5380585516178737
-0.5380585516178737
-0.5380585516178737
-0.5396764252696457
-0.5396764252696457
-0.5344761171032357
-0.5344761171032357
-0.5277734976887519
-0.5277734976887519
-0.5277734976887519
-0.5328582434514637
-0.5328582434514637
-0.5328582434514637
-0.525808936825886
-0.525808936825886
-0.525808936825886
-0.5209553158705702
-0.5209553158705702
-0.5209553158705702
-0.5173728813559322
-0.5173728813559322
-0.5151771956856703
-0.5151771956856703
-0.522342064714946
-0.522342064714946
-0.522342064714946
-0.522342064714946
-0.5196841294298922
-0.5196841294298922
-0.5178351309707243
-0.5178351309707243
-0.5178351309707243
-0.5327426810477658
-0.5327426810477658
-0.5327426810477658
-0.5396764252696457
-0.5396764252696457
-0.5350539291217257
-0.5350539291217257
-0.5165639445300463
-0.5165639445300463
-0.5165639445300463
-0.5037365177195685
-0.5037365177195685
-0.5014252696456085
-0.5014252696456085
-0.5014252696456085
-0.4934514637904468
-0.4934514637904468
-0.4934514637904468
-0.49564714946070865
-0.49564714946070865
-0.4914869029275808
-0.4914869029275808
-0.4805084745762711
-0.4805084745762711
-0.4805084745762711
-0.47912172573189515
-0.47912172573189515
-0.47912172573189515
-0.47912172573189515
-0.46756548536209563
-0.46756548536209563
-0.46814329738058547
-0.46814329738058547
-0.46814329738058547
-0.46248073959938374
-0.46248073959938374
-0.45600924499229567
-0.45600924499229567
-0.45600924499229567
-0.4647919876733435
-0.4647919876733435
-0.4647919876733435
-0.4695300462249614
-0.4695300462249614
-0.4740369799691835
-0.4740369799691835
-0.4740369799691835
-0.47819722650231133
-0.47819722650231133
-0.47819722650231133
-0.4740369799691835
-0.4740369799691835
-0.47750385208012336
-0.47750385208012336
-0.47750385208012336
-0.4740369799691835
-0.4740369799691835
-0.47981510015408313
-0.47981510015408313
-0.47981510015408313
-0.4840909090909091
-0.4840909090909091
-0.4840909090909091
-0.4828197226502311
-0.4828197226502311
-0.4828197226502311
-0.485593220338983
-0.4846687211093992
-0.4846687211093992
-0.4846687211093992
-0.47553929121725735
-0.47553929121725735
-0.47553929121725735
-0.48073959938366717
-0.48073959938366717
-0.48073959938366717
-0.48073959938366717
-0.48859784283513097
-0.48859784283513097
-0.5032742681047766
-0.5032742681047766
-0.5032742681047766
-0.5081278890600924
-0.5081278890600924
-0.5053543913713405
-0.5053543913713405
-0.5053543913713405
-0.5102080123266564
-0.5102080123266564
-0.5102080123266564
-0.5100924499229584
-0.5100924499229584
-0.5129815100154084
-0.5129815100154084
-0.5129815100154084
-0.5091679506933744
-0.5091679506933744
-0.5038520801232667
-0.5038520801232667
-0.5038520801232667
-0.5090523882896765
-0.5090523882896765
-0.5090523882896765
-0.49842064714946077
-0.49842064714946077
-0.49946070878274273
-0.49946070878274273
-0.49946070878274273
-0.5091679506933744
-0.5091679506933744
-0.5091679506933744
-0.5003852080123266
-0.5003852080123266
-0.4935670261941447
-0.4935670261941447
-0.4935670261941447
-0.4957627118644068
-0.4957627118644068
-0.5095146379044684
-0.5095146379044684
-0.5095146379044684
-0.5095146379044684
-0.5225731895223421
-0.5225731895223421
-0.5225731895223421
-0.5186440677966102
-0.5186440677966102
-0.5144838212634824
-0.5144838212634824
-0.5144838212634824
-0.520608628659476
-0.520608628659476
-0.5141371340523884
-0.5141371340523884
-0.5141371340523884
-0.5164483821263481
-0.5164483821263481
-0.5164483821263481
-0.5236132511556241
-0.5236132511556241
-0.5213020030816641
-0.5213020030816641
-0.5213020030816641
-0.5213020030816641
-0.5207241910631741
-0.5207241910631741
-0.5121725731895224
-0.5121725731895224
-0.5121725731895224
-0.5113636363636365
-0.5113636363636365
-0.5143682588597842
-0.5143682588597842
-0.5143682588597842
-0.5102080123266564
-0.5102080123266564
-0.5102080123266564
-0.5072033898305086
-0.5072033898305086
-0.5072033898305086
-0.5070878274268105
-0.5070878274268105
-0.5129815100154084
-0.5129815100154084
-0.4860554699537749
-0.4860554699537749
-0.4860554699537749
-0.3911787365177197
-0.3911787365177197
-0.3911787365177197
-0.3911787365177197
-0.3281972265023114
-0.3281972265023114
-0.3768489984591681
-0.3768489984591681
-0.3768489984591681
-0.6142141756548536
-0.6142141756548536
-0.7761171032357472
-0.7761171032357472
-0.7761171032357472
-0.8030431432973806
-0.8030431432973806
-0.8030431432973806
-0.6907164869029276
-0.6907164869029276
-0.5299691833590139
-0.5299691833590139
-0.49749614791987673
-0.49749614791987673
-0.49749614791987673
-0.5177195685670262
-0.5177195685670262
-0.5177195685670262
-0.5167950693374423
-0.5167950693374423
-0.5165639445300463
-0.5165639445300463
-0.5120570107858242
-0.5120570107858242
-0.5120570107858242
-0.5120570107858242
-0.5035053929121724
-0.5035053929121724
-0.5035053929121724
-0.5105546995377503
-0.5105546995377503
-0.5188751926040063
-0.5188751926040063
-0.522226502311248
-0.522226502311248
-0.522226502311248
-0.52557781201849
-0.52557781201849
-0.52557781201849
-0.5266178736517719
-0.5266178736517719
-0.5266178736517719
-0.5358628659476117
-0.5358628659476117
-0.5358628659476117
-0.5283513097072419
-0.5283513097072419
-0.5178351309707243
-0.5178351309707243
-0.5178351309707243
-0.52788906009245
-0.52788906009245
-0.52788906009245
-0.527195685670262
-0.527195685670262
-0.527195685670262
-0.5386363636363637
-0.5386363636363637
-0.5374807395993837
-0.5374807395993837
-0.5374807395993837
-0.5311248073959939
-0.5311248073959939
-0.5311248073959939
-0.5327426810477658
-0.5327426810477658
-0.5321648690292758
-0.5321648690292758
-0.5321648690292758
-0.5386363636363637
-0.5386363636363637
-0.5437211093990755
-0.5437211093990755
-0.5437211093990755
-0.5437211093990755
-0.5459167950693374
-0.5459167950693374
-0.5459167950693374
-0.5475346687211093
-0.5475346687211093
-0.5381741140215717
-0.5381741140215717
-0.523382126348228
-0.523382126348228
-0.523382126348228
-0.5122881355932203
-0.5122881355932203
-0.5122881355932203
-0.5062788906009245
-0.5062788906009245
-0.5062788906009245
-0.5067411402157165
-0.5067411402157165
-0.5067411402157165
-0.5014252696456085
-0.5014252696456085
-0.5006163328197226
-0.5006163328197226
-0.5024653312788905
-0.5024653312788905
-0.5024653312788905
-0.49137134052388287
-0.49137134052388287
-0.49137134052388287
-0.49483821263482275
-0.49483821263482275
-0.4957627118644068
-0.4957627118644068
-0.4957627118644068
-0.487557781201849
-0.487557781201849
-0.487557781201849
-0.49599383667180263
-0.49599383667180263
-0.49599383667180263
-0.48882896764252703
-0.48882896764252703
-0.48663328197226496
-0.48663328197226496
-0.48663328197226496
-0.4883667180277351
-0.4883667180277351
-0.4883667180277351
-0.47912172573189515
-0.47912172573189515
-0.47912172573189515
-0.4851309707241911
-0.4851309707241911
-0.4860554699537749
-0.4860554699537749
-0.4854776579352851
-0.4854776579352851
-0.4854776579352851
-0.48686440677966103
-0.48686440677966103
-0.48686440677966103
-0.48663328197226496
-0.48663328197226496
-0.48663328197226496
-0.4918335901386748
-0.4918335901386748
-0.49137134052388287
-0.49137134052388287
-0.49137134052388287
-0.4880200308166409
-0.4880200308166409
-0.49634052388289684
-0.49634052388289684
-0.49634052388289684
-0.49645608628659477
-0.49645608628659477
-0.49645608628659477
-0.4946070878274269
-0.4946070878274269
-0.4950693374422188
-0.4950693374422188
-0.4950693374422188
-0.4950693374422188
-0.4876733436055469
-0.4876733436055469
-0.49137134052388287
-0.49137134052388287
-0.49749614791987673
-0.49749614791987673
-0.49749614791987673
-0.4955315870570107
-0.4955315870570107
-0.4955315870570107
-0.49957627118644066
-0.49957627118644066
-0.49957627118644066
-0.4917180277349771
-0.4917180277349771
-0.49495377503852067
-0.49495377503852067
-0.49495377503852067
-0.49992295839753464
-0.49992295839753464
-0.5011941448382127
-0.5011941448382127
-0.5011941448382127
-0.5058166409861324
-0.5058166409861324
-0.5058166409861324
-0.4983050847457626
-0.4983050847457626
-0.4983050847457626
-0.5011941448382127
-0.5011941448382127
-0.49518489984591674
-0.49518489984591674
-0.49518489984591674
-0.49368258859784286
-0.49368258859784286
-0.5001540832049307
-0.5001540832049307
-0.5001540832049307
-0.5001540832049307
-0.49749614791987673
-0.49749614791987673
-0.4981895223420647
-0.4981895223420647
-0.49946070878274273
-0.49946070878274273
-0.49946070878274273
-0.49495377503852067
-0.49495377503852067
-0.4962249614791987
-0.4962249614791987
-0.4962249614791987
-0.48882896764252703
-0.48882896764252703
-0.4907935285053928
-0.4907935285053928
-0.4907935285053928
-0.4942604006163329
-0.4942604006163329
-0.4942604006163329
-0.49125577812018495
-0.49125577812018495
-0.49125577812018495
-0.5017719568567027
-0.5017719568567027
-0.5023497688751927
-0.5023497688751927
-0.5002696456086286
-0.5002696456086286
-0.5002696456086286
-0.5002696456086286
-0.5039676425269646
-0.5039676425269646
-0.5039676425269646
-0.49761171032357465
-0.49761171032357465
-0.49680277349768875
-0.49680277349768875
-0.49680277349768875
-0.49668721109399083
-0.49668721109399083
-0.49749614791987673
-0.49749614791987673
-0.49749614791987673
-0.5023497688751927
-0.5023497688751927
-0.5023497688751927
-0.4981895223420647
-0.4981895223420647
-0.5043143297380586
-0.5043143297380586
-0.5043143297380586
-0.5068567026194144
-0.5068567026194144
-0.5068567026194144
-0.5016563944530046
-0.5016563944530046
-0.5030431432973805
-0.5030431432973805
-0.5030431432973805
-0.5073189522342064
-0.5073189522342064
-0.5130970724191062
-0.5130970724191062
-0.5130970724191062
-0.5130970724191062
-0.5143682588597842
-0.5143682588597842
-0.5143682588597842
-0.5070878274268105
-0.5070878274268105
-0.5144838212634824
-0.5144838212634824
-0.5095146379044684
-0.5095146379044684
-0.5095146379044684
-0.5072033898305086
-0.5072033898305086
-0.5072033898305086
-0.5156394453004622
-0.5156394453004622
-0.5156394453004622
-0.5142526964560863
-0.5142526964560863
-0.5142526964560863
-0.5158705701078582
-0.5158705701078582
-0.5187596302003081
-0.5187596302003081
-0.5187596302003081
-0.5137904468412943
-0.5137904468412943
-0.5137904468412943
-0.5145993836671803
-0.5145993836671803
-0.5145993836671803
-0.5067411402157165
-0.5067411402157165
-0.5091679506933744
-0.5091679506933744
-0.5091679506933744
-0.5172573189522343
-0.5172573189522343
-0.5172573189522343
-0.5126348228043143
-0.5126348228043143
-0.5156394453004622
-0.5156394453004622
-0.5156394453004622
-0.5133281972265022
-0.5133281972265022
-0.5133281972265022
-0.5114791987673344
-0.5114791987673344
-0.5114791987673344
-0.5176040061633282
-0.5176040061633282
-0.5176040061633282
-0.5134437596302004
-0.5134437596302004
-0.5197996918335901
-0.5197996918335901
-0.5197996918335901
-0.5197996918335901
-0.5197996918335901
-0.5197996918335901
-0.5158705701078582
-0.5158705701078582
-0.5158705701078582
-0.5171417565485362
-0.5171417565485362
-0.5171417565485362
-0.5102080123266564
-0.5102080123266564
-0.5073189522342064
-0.5073189522342064
-0.5073189522342064
-0.4658320493066257
-0.4658320493066257
-0.37372881355932197
-0.37372881355932197
-0.37372881355932197
-0.3336286594761171
-0.3336286594761171
-0.3336286594761171
-0.40620184899845935
-0.40620184899845935
-0.40620184899845935
-0.6424114021571647
-0.6424114021571647
-0.6424114021571647
-0.7790061633281972
-0.7790061633281972
-0.7788906009244992
-0.7788906009244992
-0.6485362095531587
-0.6485362095531587
-0.6485362095531587
-0.5114791987673344
-0.5114791987673344
-0.5114791987673344
-0.49322033898305095
-0.49322033898305095
-0.49322033898305095
-0.5187596302003081
-0.5187596302003081
-0.5187596302003081
-0.5215331278890601
-0.5215331278890601
-0.521879815100154
-0.521879815100154
-0.521879815100154
-0.522226502311248
-0.522226502311248
-0.522226502311248
-0.5186440677966102
-0.5186440677966102
-0.5186440677966102
-0.5207241910631741
-0.5207241910631741
-0.5119414483821264
-0.5119414483821264
-0.5119414483821264
-0.5084745762711864
-0.5084745762711864
-0.5091679506933744
-0.5091679506933744
-0.5091679506933744
-0.5170261941448382
-0.5170261941448382
-0.5170261941448382
-0.5310092449922958
-0.5310092449922958
-0.5351694915254237
-0.5351694915254237
-0.5351694915254237
-0.5351694915254237
-0.5349383667180279
-0.5349383667180279
-0.5323959938366718
-0.5323959938366718
-0.5304314329738058
-0.5304314329738058
-0.5304314329738058
-0.5367873651771957
-0.5367873651771957
-0.5399075500770416
-0.5399075500770416
-0.5399075500770416
-0.5399075500770416
-0.5403697996918335
-0.5403697996918335
-0.5403697996918335
-0.5478813559322033
-0.5478813559322033
-0.5418721109399076
-0.5418721109399076
-0.5418721109399076
-0.5390986132511557
-0.5390986132511557
-0.5340138674884437
-0.5340138674884437
-0.5340138674884437
-0.526848998459168
-0.526848998459168
-0.526848998459168
-0.5293913713405238
-0.5293913713405238
-0.5293913713405238
-0.523151001540832
-0.523151001540832
-0.5199152542372882
-0.5199152542372882
-0.5199152542372882
-0.5173728813559322
-0.5173728813559322
-0.5139060092449923
-0.5139060092449923
-0.5139060092449923
-0.5130970724191062
-0.5130970724191062
-0.5025808936825886
-0.5025808936825886
-0.5025808936825886
-0.5025808936825886
-0.4996918335901388
-0.4996918335901388
-0.5015408320493067
-0.5015408320493067
-0.4919491525423729
-0.4919491525423729
-0.4919491525423729
-0.48963790446841293
-0.48963790446841293
-0.48732665639445294
-0.48732665639445294
-0.48732665639445294
-0.48732665639445294
-0.48177966101694913
-0.48177966101694913
-0.48177966101694913
-0.4787750385208014
-0.4787750385208014
-0.46837442218798153
-0.46837442218798153
-0.46178736517719576
-0.46178736517719576
-0.46178736517719576
-0.45508474576271185
-0.45508474576271185
-0.45508474576271185
-0.4508089368258861
-0.4508089368258861
-0.4508089368258861
-0.4620184899845916
-0.4620184899845916
-0.4620184899845916
-0.46606317411402154
-0.46606317411402154
-0.4772727272727273
-0.4772727272727273
-0.4772727272727273
-0.48097072419106324
-0.48097072419106324
-0.48097072419106324
-0.4765793528505393
-0.4765793528505393
-0.48859784283513097
-0.48859784283513097
-0.48859784283513097
-0.4899845916795069
-0.4899845916795069
-0.4899845916795069
-0.48813559322033884
-0.48813559322033884
-0.49368258859784286
-0.49368258859784286
-0.49368258859784286
-0.488251155624037
-0.488251155624037
-0.4907935285053928
-0.4907935285053928
-0.4907935285053928
-0.487904468412943
-0.487904468412943
-0.487904468412943
-0.485593220338983
-0.485593220338983
-0.485593220338983
-0.487557781201849
-0.487557781201849
-0.4823574730354392
-0.4823574730354392
-0.4823574730354392
-0.48848228043143305
-0.48848228043143305
-0.48848228043143305
-0.4981895223420647
-0.4981895223420647
-0.4981895223420647
-0.5052388289676425
-0.5052388289676425
-0.5052388289676425
-0.5141371340523884
-0.5141371340523884
-0.5092835130970725
-0.5092835130970725
-0.5016563944530046
-0.5016563944530046
-0.5016563944530046
-0.5016563944530046
-0.5020030816640986
-0.5020030816640986
-0.4981895223420647
-0.4981895223420647
-0.4981895223420647
-0.4981895223420647
-0.4981895223420647
-0.4981895223420647
-0.49518489984591674
-0.49518489984591674
-0.49518489984591674
-0.49206471494607085
-0.49206471494607085
-0.4906779661016949
-0.4906779661016949
-0.4906779661016949
-0.4906779661016949
-0.48536209553158693
-0.48536209553158693
-0.48536209553158693
-0.48536209553158693
-0.4860554699537749
-0.4860554699537749
-0.4860554699537749
-0.4860554699537749
-0.48501540832049317
-0.48501540832049317
-0.48501540832049317
-0.4831664098613251
-0.4831664098613251
-0.4831664098613251
-0.4962249614791987
-0.4962249614791987
-0.5043143297380586
-0.5043143297380586
-0.5043143297380586
-0.5043143297380586
-0.5076656394453005
-0.5076656394453005
-0.5076656394453005
-0.5076656394453005
-0.5090523882896765
-0.5090523882896765
-0.5090523882896765
-0.5084745762711864
-0.5084745762711864
-0.5084745762711864
-0.5112480739599383
-0.5112480739599383
-0.5112480739599383
-0.5112480739599383
-0.5082434514637906
-0.5082434514637906
-0.5082434514637906
-0.5082434514637906
-0.5091679506933744
-0.5091679506933744
-0.5091679506933744
-0.5091679506933744
-0.5091679506933744
-0.5091679506933744
-0.5091679506933744
-0.4677966101694915
-0.4677966101694915
-0.4677966101694915
-0.4677966101694915
-0.3926810477657936
-0.3926810477657936
-0.3926810477657936
-0.3926810477657936
-0.32865947611710333
-0.32865947611710333
-0.32865947611710333
-0.32865947611710333
-0.36448382126348244
-0.36448382126348244
-0.36448382126348244
-0.36448382126348244
-0.5987288135593221
-0.5987288135593221
-0.5987288135593221
-0.5987288135593221
-0.7831664098613251
-0.7831664098613251
-0.7831664098613251
-0.7831664098613251
-0.7831664098613251
-0.7593605546995378
-0.7593605546995378
-0.7593605546995378
-0.6318952234206472
-0.6318952234206472
-0.6318952234206472
-0.5176040061633282
-0.5176040061633282
-0.5176040061633282
-0.5176040061633282
-0.5117103235747303
-0.5117103235747303
-0.5117103235747303
-0.5117103235747303
-0.5117103235747303
-0.5194530046224962
-0.5194530046224962
-0.5194530046224962
-0.5189907550077041
-0.5189907550077041
-0.5189907550077041
-0.5226887519260401
-0.5226887519260401
-0.5226887519260401
-0.5129815100154084
-0.5129815100154084
-0.5129815100154084
-0.5102080123266564
-0.5102080123266564
-0.5102080123266564
-0.5038520801232667
-0.5038520801232667
-0.5018875192604005
-0.5018875192604005
-0.5018875192604005
-0.5050077041602465
-0.5050077041602465
-0.5050077041602465
-0.5031587057010786
-0.5031587057010786
-0.5075500770416025
-0.5075500770416025
-0.5075500770416025
-0.5105546995377503
-0.5105546995377503
-0.5073189522342064
-0.5073189522342064
-0.5073189522342064
-0.5132126348228043
-0.5132126348228043
-0.5132126348228043
-0.5166795069337442
-0.5166795069337442
-0.5202619414483821
-0.5202619414483821
-0.5202619414483821
-0.526848998459168
-0.526848998459168
-0.5314714946070878
-0.5314714946070878
-0.5314714946070878
-0.5395608628659476
-0.5395608628659476
-0.5395608628659476
-0.5446456086286594
-0.5446456086286594
-0.5446456086286594
-0.5407164869029276
-0.5407164869029276
-0.5342449922958398
-0.5342449922958398
-0.5342449922958398
-0.5352850539291217
-0.5352850539291217
-0.5352850539291217
-0.5387519260400615
-0.5387519260400615
-0.5387519260400615
-0.5335516178736517
-0.5335516178736517
-0.52326656394453
-0.52326656394453
-0.52326656394453
-0.5165639445300463
-0.5165639445300463
-0.5165639445300463
-0.5029275808936826
-0.5029275808936826
-0.4890600924499229
-0.4890600924499229
-0.4890600924499229
-0.4816640986132512
-0.4816640986132512
-0.483281972265023
-0.483281972265023
-0.483281972265023
-0.4851309707241911
-0.4851309707241911
-0.4851309707241911
-0.47865947611710324
-0.47865947611710324
-0.47681047765793516
-0.47681047765793516
-0.47681047765793516
-0.4741525423728814
-0.4741525423728814
-0.4741525423728814
-0.4712634822804316
-0.4712634822804316
-0.4712634822804316
-0.46918335901386765
-0.46918335901386765
-0.46918335901386765
-0.46028505392912167
-0.46028505392912167
-0.45820493066255774
-0.45820493066255774
-0.45820493066255774
-0.4620184899845916
-0.4620184899845916
-0.4557781201848998
-0.4557781201848998
-0.4557781201848998
-0.454853620955316
-0.454853620955316
-0.454853620955316
-0.45901386748844386
-0.45901386748844386
-0.4533513097072419
-0.4533513097072419
-0.4533513097072419
-0.44768875192603996
-0.44768875192603996
-0.44768875192603996
-0.4376348228043143
-0.4376348228043143
-0.4376348228043143
-0.451617873651772
-0.451617873651772
-0.46328967642526964
-0.46328967642526964
-0.4636363636363636
-0.4636363636363636
-0.4636363636363636
-0.4636363636363636
-0.4710323574730353
-0.4710323574730353
-0.4785439137134051
-0.4785439137134051
-0.4847842835130969
-0.4847842835130969
-0.4847842835130969
-0.487211093990755
-0.487211093990755
-0.487211093990755
-0.48258859784283525
-0.48258859784283525
-0.48258859784283525
-0.4864021571648689
-0.4864021571648689
-0.4864021571648689
-0.48432203389830497
-0.48432203389830497
-0.4821263482280431
-0.4821263482280431
-0.4803929121725732
-0.4803929121725732
-0.4803929121725732
-0.4714946070878274
-0.4714946070878274
-0.46768104776579356
-0.46768104776579356
-0.46768104776579356
-0.4599383667180277
-0.4599383667180277
-0.4599383667180277
-0.4571648690292758
-0.4571648690292758
-0.4728813559322034
-0.4728813559322034
-0.4728813559322034
-0.4800462249614792
-0.4800462249614792
-0.4880200308166409
-0.4880200308166409
-0.4880200308166409
-0.4880200308166409
-0.48975346687211085
-0.48975346687211085
-0.48570878274268114
-0.48570878274268114
-0.48570878274268114
-0.4876733436055469
-0.4876733436055469
-0.4876733436055469
-0.4854776579352851
-0.4854776579352851
-0.485593220338983
-0.485593220338983
-0.485593220338983
-0.484899845916795
-0.484899845916795
-0.484899845916795
-0.4765793528505393
-0.4765793528505393
-0.4765793528505393
-0.4778505392912171
-0.4778505392912171
-0.4778505392912171
-0.47357473035439135
-0.47357473035439135
-0.4651386748844375
-0.4651386748844375
-0.4690677966101695
-0.4690677966101695
-0.4690677966101695
-0.46918335901386765
-0.46918335901386765
-0.46918335901386765
-0.4667565485362095
-0.4667565485362095
-0.4667565485362095
-0.46606317411402154
-0.46606317411402154
-0.46606317411402154
-0.48305084745762716
-0.48305084745762716
-0.4970338983050848
-0.4970338983050848
-0.4702234206471494
-0.4702234206471494
-0.4702234206471494
-0.379969183359014
-0.379969183359014
-0.379969183359014
-0.379969183359014
-0.30901386748844395
-0.30901386748844395
-0.34807395993836665
-0.34807395993836665
-0.5835901386748845
-0.5835901386748845
-0.5835901386748845
-0.7430662557781202
-0.7430662557781202
-0.7430662557781202
-0.7761171032357472
-0.7761171032357472
-0.6619414483821264
-0.6619414483821264
-0.6619414483821264
-0.48697996918335895
-0.48697996918335895
-0.48697996918335895
-0.44687981510015407
-0.44687981510015407
-0.46895223420647136
-0.46895223420647136
-0.47461479198767353
-0.47461479198767353
-0.47461479198767353
-0.4756548536209553
-0.4756548536209553
-0.47369029275808927
-0.47369029275808927
-0.47369029275808927
-0.47369029275808927
-0.4801617873651771
-0.4801617873651771
-0.4954160246533128
-0.4954160246533128
-0.4954160246533128
-0.4957627118644068
-0.4957627118644068
-0.4978428351309707
-0.4978428351309707
-0.4978428351309707
-0.4941448382126348
-0.4941448382126348
-0.4941448382126348
-0.4985362095531587
-0.4985362095531587
-0.4985362095531587
-0.4989984591679506
-0.4989984591679506
-0.4989984591679506
-0.4816640986132512
-0.4816640986132512
-0.48258859784283525
-0.48258859784283525
-0.48258859784283525
-0.47357473035439135
-0.47357473035439135
-0.47357473035439135
-0.47912172573189515
-0.47912172573189515
-0.4880200308166409
-0.4880200308166409
-0.4880200308166409
-0.48882896764252703
-0.48882896764252703
-0.48882896764252703
-0.49402927580893685
-0.49402927580893685
-0.4969183359013867
-0.4969183359013867
-0.4942604006163329
-0.4942604006163329
-0.4942604006163329
-0.5050077041602465
-0.5050077041602465
-0.5050077041602465
-0.5113636363636365
-0.5113636363636365
-0.5113636363636365
-0.5142526964560863
-0.5142526964560863
-0.5142526964560863
-0.5185285053929121
-0.5185285053929121
-0.5018875192604005
-0.5018875192604005
-0.5018875192604005
-0.48374422187981514
-0.48374422187981514
-0.48374422187981514
-0.4714946070878274
-0.4714946070878274
-0.4714946070878274
-0.46328967642526964
-0.46328967642526964
-0.4579738058551619
-0.4579738058551619
-0.4579738058551619
-0.45554699537750376
-0.45554699537750376
-0.4587827426810478
-0.4587827426810478
-0.4587827426810478
-0.4552003081664098
-0.4552003081664098
-0.4552003081664098
-0.4599383667180277
-0.4599383667180277
-0.46536979969183356
-0.46536979969183356
-0.46536979969183356
-0.46016949152542375
-0.46016949152542375
-0.46016949152542375
-0.4623651771956856
-0.4623651771956856
-0.4623651771956856
-0.46883667180277344
-0.46883667180277344
-0.46687211093990744
-0.46687211093990744
-0.46687211093990744
-0.4686055469953776
-0.4686055469953776
-0.4686055469953776
-0.4607473035439136
-0.4607473035439136
-0.45416024653312803
-0.45416024653312803
-0.45416024653312803
-0.4454930662557781
-0.4454930662557781
-0.43855932203389836
-0.43855932203389836
-0.43855932203389836
-0.44630200308166423
-0.44630200308166423
-0.44630200308166423
-0.4451463790446841
-0.4451463790446841
-0.4451463790446841
-0.44491525423728806
-0.44491525423728806
-0.44491525423728806
-0.4478043143297381
-0.4478043143297381
-0.4423728813559322
-0.4423728813559322
-0.4423728813559322
-0.44526194144838205
-0.44526194144838205
-0.44410631741140216
-0.44410631741140216
-0.44410631741140216
-0.4607473035439136
-0.4607473035439136
-0.4607473035439136
-0.47322804314329736
-0.47322804314329736
-0.47010785824345147
-0.47010785824345147
-0.47010785824345147
-0.4828197226502311
-0.4828197226502311
-0.4828197226502311
-0.48651771956856704
-0.48651771956856704
-0.4776194144838213
-0.4776194144838213
-0.4776194144838213
-0.47461479198767353
-0.47461479198767353
-0.47010785824345147
-0.47010785824345147
-0.47010785824345147
-0.47010785824345147
-0.4695300462249614
-0.4695300462249614
-0.47080123266563945
-0.47080123266563945
-0.47080123266563945
-0.46999229583975355
-0.46999229583975355
-0.46999229583975355
-0.46999229583975355
-0.46999229583975355
-0.4667565485362095
-0.4667565485362095
-0.4667565485362095
-0.46444530046224974
-0.46444530046224974
-0.46444530046224974
-0.4712634822804316
-0.4712634822804316
-0.4710323574730353
-0.4710323574730353
-0.4710323574730353
-0.484899845916795
-0.484899845916795
-0.493798151001541
-0.493798151001541
-0.493798151001541
-0.492526964560863
-0.492526964560863
-0.492526964560863
-0.4876733436055469
-0.4876733436055469
-0.4793528505392912
-0.4793528505392912
-0.4793528505392912
-0.48073959938366717
-0.48073959938366717
-0.4799306625577813
-0.4799306625577813
-0.4799306625577813
-0.4717257318952235
-0.4717257318952235
-0.4813174114021572
-0.4813174114021572
-0.4813174114021572
-0.4623651771956856
-0.4623651771956856
-0.4623651771956856
-0.4623651771956856
-0.40909090909090917
-0.40909090909090917
-0.3522342064714947
-0.3522342064714947
-0.3522342064714947
-0.33859784283513106
-0.33859784283513106
-0.45785824345146375
-0.45785824345146375
-0.45785824345146375
-0.6684129429892143
-0.6684129429892143
-0.6684129429892143
-0.6684129429892143
-0.7354391371340523
-0.7354391371340523
-0.676271186440678
-0.676271186440678
-0.5291602465331278
-0.5291602465331278
-0.5291602465331278
-0.4728813559322034
-0.4728813559322034
-0.4728813559322034
-0.48385978428351306
-0.48385978428351306
-0.48385978428351306
-0.48859784283513097
-0.48859784283513097
-0.4919491525423729
-0.4919491525423729
-0.4919491525423729
-0.4844375963020031
-0.4844375963020031
-0.48224191063174104
-0.48224191063174104
-0.48224191063174104
-0.48097072419106324
-0.48097072419106324
-0.4812018489984591
-0.4812018489984591
-0.4812018489984591
-0.488251155624037
-0.488251155624037
-0.488251155624037
-0.4854776579352851
-0.4854776579352851
-0.4854776579352851
-0.48258859784283525
-0.48258859784283525
-0.483975346687211
-0.483975346687211
-0.4805084745762711
-0.4805084745762711
-0.4805084745762711
-0.4821263482280431
-0.4821263482280431
-0.4821263482280431
-0.48455315870570104
-0.48455315870570104
-0.48455315870570104
-0.49911402157164875
-0.49911402157164875
-0.49911402157164875
-0.5128659476117103
-0.5128659476117103
-0.5172573189522343
-0.5172573189522343
-0.5228043143297381
-0.5228043143297381
-0.5228043143297381
-0.5228043143297381
-0.525808936825886
-0.525808936825886
-0.525808936825886
-0.5204930662557782
-0.5204930662557782
-0.524191063174114
-0.524191063174114
-0.524191063174114
-0.5182973805855162
-0.5182973805855162
-0.5152927580893683
-0.5152927580893683
-0.5152927580893683
-0.5085901386748845
-0.5085901386748845
-0.4947226502311248
-0.4947226502311248
-0.4947226502311248
-0.4851309707241911
-0.4851309707241911
-0.4851309707241911
-0.46687211093990744
-0.46687211093990744
-0.4538135593220338
-0.4538135593220338
-0.4538135593220338
-0.4508089368258861
-0.4508089368258861
-0.44098613251155605
-0.44098613251155605
-0.44098613251155605
-0.4429506933744223
-0.4429506933744223
-0.4429506933744223
-0.4647919876733435
-0.4647919876733435
-0.4647919876733435
-0.4812018489984591
-0.4812018489984591
-0.4867488443759631
-0.4867488443759631
-0.4867488443759631
-0.47946841294298914
-0.47946841294298914
-0.48108628659476116
-0.48108628659476116
-0.48108628659476116
-0.4793528505392912
-0.4793528505392912
-0.4793528505392912
-0.4717257318952235
-0.4717257318952235
-0.46929892141756535
-0.46929892141756535
-0.46929892141756535
-0.46144067796610155
-0.46144067796610155
-0.46144067796610155
-0.4595916795069339
-0.4595916795069339
-0.4599383667180277
-0.4599383667180277
-0.454853620955316
-0.454853620955316
-0.454853620955316
-0.454853620955316
-0.454853620955316
-0.454853620955316
-0.454853620955316
-0.4454930662557781
-0.4454930662557781
-0.44087057010785835
-0.44087057010785835
-0.4438751926040061
-0.4438751926040061
-0.43971494607087824
-0.43971494607087824
-0.43971494607087824
-0.43971494607087824
-0.4595916795069339
-0.4595916795069339
-0.4595916795069339
-0.4744992295839754
-0.4744992295839754
-0.4744992295839754
-0.4729969183359015
-0.4729969183359015
-0.48189522342064706
-0.48189522342064706
-0.4835130970724191
-0.4835130970724191
-0.4835130970724191
-0.4851309707241911
-0.4851309707241911
-0.4851309707241911
-0.48374422187981514
-0.48374422187981514
-0.4778505392912171
-0.4778505392912171
-0.4778505392912171
-0.47519260400616314
-0.47519260400616314
-0.47519260400616314
-0.4757704160246532
-0.4757704160246532
-0.47715716486902937
-0.47715716486902937
-0.47715716486902937
-0.4741525423728814
-0.4741525423728814
-0.46525423728813564
-0.46525423728813564
-0.46525423728813564
-0.4664098613251155
-0.4664098613251155
-0.4664098613251155
-0.4642141756548537
-0.4642141756548537
-0.4642141756548537
-0.4561248073959938
-0.4561248073959938
-0.4702234206471494
-0.4702234206471494
-0.4702234206471494
-0.48270416024653295
-0.48270416024653295
-0.48270416024653295
-0.489522342064715
-0.489522342064715
-0.489522342064715
-0.48778890600924507
-0.48778890600924507
-0.489175654853621
-0.489175654853621
-0.489175654853621
-0.49668721109399083
-0.49668721109399083
-0.49160246533127894
-0.49160246533127894
-0.49160246533127894
-0.4978428351309707
-0.4978428351309707
-0.4978428351309707
-0.4989984591679506
-0.4989984591679506
-0.4907935285053928
-0.4907935285053928
-0.4907935285053928
-0.4899845916795069
-0.4899845916795069
-0.4899845916795069
-0.48697996918335895
-0.48697996918335895
-0.48697996918335895
-0.4867488443759631
-0.4867488443759631
-0.48975346687211085
-0.48975346687211085
-0.48975346687211085
-0.48097072419106324
-0.48097072419106324
-0.48097072419106324
-0.4793528505392912
-0.4793528505392912
-0.47981510015408313
-0.47981510015408313
-0.49044684129429905
-0.49044684129429905
-0.49044684129429905
-0.49795839753466886
-0.49795839753466886
-0.49795839753466886
-0.4954160246533128
-0.4954160246533128
-0.4954160246533128
-0.4954160246533128
-0.4989984591679506
-0.4989984591679506
-0.485246533127889
-0.485246533127889
-0.485246533127889
-0.4324345146379045
-0.4324345146379045
-0.3573189522342064
-0.3573189522342064
-0.3573189522342064
-0.32796610169491514
-0.32796610169491514
-0.32796610169491514
-0.43728813559322033
-0.43728813559322033
-0.43728813559322033
-0.6889830508474576
-0.6889830508474576
-0.7779661016949152
-0.7779661016949152
-0.7779661016949152
-0.7025038520801232
-0.7025038520801232
-0.5454545454545454
-0.5454545454545454
-0.5454545454545454
-0.47161016949152534
-0.47161016949152534
-0.4876733436055469
-0.4876733436055469
-0.4876733436055469
-0.48732665639445294
-0.48732665639445294
-0.48732665639445294
-0.4816640986132512
-0.4816640986132512
-0.4729969183359015
-0.4729969183359015
-0.4729969183359015
-0.4674499229583975
-0.4674499229583975
-0.485593220338983
-0.485593220338983
-0.485593220338983
-0.5018875192604005
-0.5018875192604005
-0.5018875192604005
-0.5083590138674884
-0.5083590138674884
-0.5062788906009245
-0.5062788906009245
-0.5062788906009245
-0.49946070878274273
-0.49946070878274273
-0.5076656394453005
-0.5076656394453005
-0.5076656394453005
-0.5063944530046225
-0.5063944530046225
-0.5063944530046225
-0.5015408320493067
-0.5015408320493067
-0.5015408320493067
-0.5024653312788905
-0.5024653312788905
-0.49946070878274273
-0.49946070878274273
-0.5016563944530046
-0.5016563944530046
-0.5016563944530046
-0.5016563944530046
-0.5040832049306625
-0.5040832049306625
-0.5037365177195685
-0.5037365177195685
-0.5054699537750386
-0.5054699537750386
-0.5054699537750386
-0.5018875192604005
-0.5018875192604005
-0.5018875192604005
-0.5055855161787366
-0.5055855161787366
-0.5080123266563945
-0.5080123266563945
-0.5080123266563945
-0.5092835130970725
-0.5092835130970725
-0.5092835130970725
-0.522919876733436
-0.522919876733436
-0.5281201848998458
-0.5281201848998458
-0.5281201848998458
-0.52615562403698
-0.52615562403698
-0.5155238828967643
-0.5155238828967643
-0.49680277349768875
-0.49680277349768875
-0.49680277349768875
-0.49368258859784286
-0.49368258859784286
-0.49368258859784286
-0.49368258859784286
-0.4917180277349771
-0.4917180277349771
-0.48732665639445294
-0.48732665639445294
-0.47819722650231133
-0.47819722650231133
-0.46571648690292755
-0.46571648690292755
-0.46571648690292755
-0.46571648690292755
-0.4610939907550078
-0.4610939907550078
-0.4610939907550078
-0.4571648690292758
-0.4571648690292758
-0.4510400616332819
-0.4510400616332819
-0.4510400616332819
-0.4466486902927582
-0.4466486902927582
-0.4415639445300461
-0.4415639445300461
-0.4415639445300461
-0.453235747303544
-0.453235747303544
-0.453235747303544
-0.4631741140215717
-0.4631741140215717
-0.4642141756548537
-0.4642141756548537
-0.4642141756548537
-0.4698767334360554
-0.4698767334360554
-0.46687211093990744
-0.46687211093990744
-0.46687211093990744
-0.4712634822804316
-0.4712634822804316
-0.4744992295839754
-0.4744992295839754
-0.4744992295839754
-0.4682588597842834
-0.4682588597842834
-0.4682588597842834
-0.47473035439137123
-0.47473035439137123
-0.47241910631741146
-0.47241910631741146
-0.47241910631741146
-0.46259630200308166
-0.46259630200308166
-0.4576271186440677
-0.4576271186440677
-0.4576271186440677
-0.4556625577812019
-0.4556625577812019
-0.4556625577812019
-0.4561248073959938
-0.4561248073959938
-0.4561248073959938
-0.4520801232665641
-0.4520801232665641
-0.45346687211093983
-0.45346687211093983
-0.45346687211093983
-0.4725346687211094
-0.4725346687211094
-0.48293528505392924
-0.48293528505392924
-0.48293528505392924
-0.48293528505392924
-0.489869029275809
-0.489869029275809
-0.489175654853621
-0.489175654853621
-0.489175654853621
-0.490562403697997
-0.490562403697997
-0.490562403697997
-0.49876733436055476
-0.49876733436055476
-0.5029275808936826
-0.5029275808936826
-0.5029275808936826
-0.5088212634822804
-0.5088212634822804
-0.5088212634822804
-0.5050077041602465
-0.5050077041602465
-0.49449152542372876
-0.49449152542372876
-0.49449152542372876
-0.4980739599383668
-0.4980739599383668
-0.4876733436055469
-0.4876733436055469
-0.4876733436055469
-0.4749614791987673
-0.4749614791987673
-0.4740369799691835
-0.4740369799691835
-0.4740369799691835
-0.4639830508474576
-0.4639830508474576
-0.4639830508474576
-0.4623651771956856
-0.4623651771956856
-0.4623651771956856
-0.4588983050847457
-0.4588983050847457
-0.4252696456086287
-0.4252696456086287
-0.33385978428351315
-0.33385978428351315
-0.33385978428351315
-0.33385978428351315
-0.2884437596302003
-0.2884437596302003
-0.2884437596302003
-0.41533127889060095
-0.41533127889060095
-0.6781201848998459
-0.6781201848998459
-0.6781201848998459
-0.7795839753466872
-0.7795839753466872
-0.7706856702619415
-0.7706856702619415
-0.7706856702619415
-0.602657935285054
-0.602657935285054
-0.4778505392912171
-0.4778505392912171
-0.4778505392912171
-0.47357473035439135
-0.47357473035439135
-0.48697996918335895
-0.48697996918335895
-0.48697996918335895
-0.487557781201849
-0.487557781201849
-0.487557781201849
-0.4805084745762711
-0.4805084745762711
-0.4805084745762711
-0.4720724191063175
-0.4720724191063175
-0.4698767334360554
-0.4698767334360554
-0.4698767334360554
-0.4687211093990755
-0.4687211093990755
-0.4687211093990755
-0.4749614791987673
-0.4749614791987673
-0.4931047765793528
-0.4931047765793528
-0.5066255778120186
-0.5066255778120186
-0.5066255778120186
-0.5197996918335901
-0.5197996918335901
-0.5197996918335901
-0.5179506933744221
-0.5179506933744221
-0.5179506933744221
-0.5181818181818182
-0.5181818181818182
-0.5202619414483821
-0.5202619414483821
-0.5202619414483821
-0.5171417565485362
-0.5171417565485362
-0.5171417565485362
-0.5189907550077041
-0.5189907550077041
-0.5189907550077041
-0.5060477657935285
-0.5060477657935285
-0.5060477657935285
-0.5040832049306625
-0.5040832049306625
-0.5132126348228043
-0.5132126348228043
-0.5132126348228043
-0.5081278890600924
-0.5081278890600924
-0.5014252696456085
-0.5014252696456085
-0.5014252696456085
-0.5060477657935285
-0.5060477657935285
-0.5060477657935285
-0.5041987673343605
-0.5041987673343605
-0.5121725731895224
-0.5121725731895224
-0.5121725731895224
-0.5115947611710323
-0.5115947611710323
-0.5073189522342064
-0.5073189522342064
-0.5073189522342064
-0.5010785824345146
-0.5010785824345146
-0.5010785824345146
-0.48975346687211085
-0.48975346687211085
-0.487557781201849
-0.487557781201849
-0.487557781201849
-0.4828197226502311
-0.4828197226502311
-0.4828197226502311
-0.47600154083204926
-0.47600154083204926
-0.4687211093990755
-0.4687211093990755
-0.4568181818181818
-0.4568181818181818
-0.4568181818181818
-0.4595916795069339
-0.4595916795069339
-0.4595916795069339
-0.4595916795069339
-0.453582434514638
-0.453582434514638
-0.45265793528505394
-0.45265793528505394
-0.4497688751926039
-0.4497688751926039
-0.4497688751926039
-0.4461864406779661
-0.4461864406779661
-0.4461864406779661
-0.4538135593220338
-0.4538135593220338
-0.4538135593220338
-0.4540446841294299
-0.4540446841294299
-0.4540446841294299
-0.46606317411402154
-0.46606317411402154
-0.4860554699537749
-0.4860554699537749
-0.48732665639445294
-0.48732665639445294
-0.48732665639445294
-0.4934514637904468
-0.4934514637904468
-0.4934514637904468
-0.4899845916795069
-0.4899845916795069
-0.483975346687211
-0.483975346687211
-0.483975346687211
-0.485593220338983
-0.485593220338983
-0.4795839753466873
-0.4795839753466873
-0.4795839753466873
-0.47600154083204926
-0.47600154083204926
-0.47033898305084754
-0.47033898305084754
-0.47033898305084754
-0.4664098613251155
-0.4664098613251155
-0.4664098613251155
-0.4650231124807396
-0.4650231124807396
-0.45982280431432976
-0.45982280431432976
-0.46213405238828975
-0.46213405238828975
-0.46213405238828975
-0.4686055469953776
-0.4686055469953776
-0.4686055469953776
-0.4654853620955317
-0.4654853620955317
-0.4654853620955317
-0.47715716486902937
-0.47715716486902937
-0.47715716486902937
-0.48859784283513097
-0.48859784283513097
-0.49206471494607085
-0.49206471494607085
-0.5007318952234208
-0.5007318952234208
-0.5007318952234208
-0.4970338983050848
-0.4970338983050848
-0.4970338983050848
-0.4919491525423729
-0.4919491525423729
-0.4919491525423729
-0.48813559322033884
-0.48813559322033884
-0.4821263482280431
-0.4821263482280431
-0.4821263482280431
-0.48270416024653295
-0.48270416024653295
-0.48270416024653295
-0.47796610169491527
-0.47796610169491527
-0.47796610169491527
-0.4787750385208014
-0.4787750385208014
-0.4628274268104777
-0.4628274268104777
-0.4628274268104777
-0.3833204930662557
-0.3833204930662557
-0.3833204930662557
-0.2998844375963021
-0.2998844375963021
-0.3048536209553159
-0.3048536209553159
-0.3048536209553159
-0.48813559322033884
-0.48813559322033884
-0.6977657935285054
-0.6977657935285054
-0.6977657935285054
-0.752195685670262
-0.752195685670262
-0.7041217257318952
-0.7041217257318952
-0.7041217257318952
-0.5409476117103236
-0.5409476117103236
-0.46883667180277344
-0.46883667180277344
-0.46883667180277344
-0.4874422187981511
-0.4874422187981511
-0.4874422187981511
-0.4917180277349771
-0.4917180277349771
-0.4917180277349771
-0.48894453004622496
-0.48894453004622496
-0.48894453004622496
-0.48686440677966103
-0.48686440677966103
-0.47831278890600926
-0.47831278890600926
-0.4792372881355933
-0.4792372881355933
-0.4792372881355933
-0.4792372881355933
-0.47669491525423746
-0.47669491525423746
-0.47669491525423746
-0.4698767334360554
-0.4698767334360554
-0.4698767334360554
-0.4698767334360554
-0.47322804314329736
-0.47322804314329736
-0.47322804314329736
-0.46895223420647136
-0.46895223420647136
-0.46895223420647136
-0.46895223420647136
-0.46895223420647136
-0.4738058551617874
-0.4738058551617874
-0.4738058551617874
-0.4738058551617874
-0.4846687211093992
-0.4846687211093992
-0.4846687211093992
-0.4880200308166409
-0.4880200308166409
-0.4880200308166409
-0.5016563944530046
-0.5016563944530046
-0.5016563944530046
-0.5016563944530046
-0.5026964560862865
-0.5110169491525423
-0.5110169491525423
-0.5110169491525423
-0.5149460708782743
-0.5149460708782743
-0.5157550077041604
-0.5157550077041604
-0.5157550077041604
-0.5157550077041604
-0.52615562403698
-0.52615562403698
-0.5208397534668721
-0.5208397534668721
-0.5208397534668721
-0.5162172573189523
-0.5162172573189523
-0.5142526964560863
-0.5142526964560863
-0.5142526964560863
-0.5050077041602465
-0.5050077041602465
-0.5050077041602465
-0.4939137134052387
-0.4939137134052387
-0.4939137134052387
-0.4780816640986132
-0.4780816640986132
-0.46063174114021566
-0.46063174114021566
-0.46063174114021566
-0.46409861325115553
-0.46409861325115553
-0.4720724191063175
-0.4720724191063175
-0.4720724191063175
-0.4772727272727273
-0.4772727272727273
-0.4764637904468412
-0.4764637904468412
-0.4764637904468412
-0.4765793528505393
-0.4765793528505393
-0.4765793528505393
-0.48570878274268114
-0.48570878274268114
-0.48570878274268114
-0.48536209553158693
-0.48536209553158693
-0.4864021571648689
-0.4864021571648689
-0.4906779661016949
-0.4906779661016949
-0.4906779661016949
-0.48651771956856704
-0.48651771956856704
-0.48651771956856704
-0.48651771956856704
-0.48270416024653295
-0.48270416024653295
-0.47438366718027725
-0.47438366718027725
-0.47438366718027725
-0.46768104776579356
-0.46768104776579356
-0.46051617873651773
-0.46051617873651773
-0.46051617873651773
-0.44988443759630203
-0.44988443759630203
-0.44988443759630203
-0.45346687211093983
-0.45346687211093983
-0.45346687211093983
-0.4702234206471494
-0.4702234206471494
-0.48177966101694913
-0.48177966101694913
-0.48177966101694913
-0.48848228043143305
-0.48848228043143305
-0.4880200308166409
-0.4880200308166409
-0.4880200308166409
-0.49322033898305095
-0.49322033898305095
-0.48894453004622496
-0.48894453004622496
-0.48894453004622496
-0.484899845916795
-0.484899845916795
-0.484899845916795
-0.484899845916795
-0.48882896764252703
-0.48882896764252703
-0.48385978428351306
-0.48385978428351306
-0.48697996918335895
-0.48697996918335895
-0.48697996918335895
-0.4887134052388289
-0.4887134052388289
-0.4887134052388289
-0.4816640986132512
-0.4816640986132512
-0.4816640986132512
-0.48293528505392924
-0.48293528505392924
-0.48293528505392924
-0.4785439137134051
-0.4785439137134051
-0.4765793528505393
-0.4765793528505393
-0.4765793528505393
-0.47588597842835134
-0.47588597842835134
-0.47588597842835134
-0.47623266563944533
-0.47623266563944533
-0.47623266563944533
-0.5010785824345146
-0.5010785824345146
-0.5098613251155625
-0.5098613251155625
-0.5098613251155625
-0.5117103235747303
-0.5117103235747303
-0.5126348228043143
-0.5126348228043143
-0.5126348228043143
-0.4576271186440677
-0.4576271186440677
-0.3584745762711865
-0.3584745762711865
-0.30080893682588594
-0.30080893682588594
-0.30080893682588594
-0.3686440677966103
-0.3686440677966103
-0.3686440677966103
-0.6119029275808938
-0.6119029275808938
-0.7550847457627119
-0.7550847457627119
-0.7582049306625578
-0.7582049306625578
-0.7582049306625578
-0.6123651771956857
-0.6123651771956857
-0.6123651771956857
-0.4764637904468412
-0.4764637904468412
-0.4764637904468412
-0.46883667180277344
-0.46883667180277344
-0.46883667180277344
-0.48305084745762716
-0.48305084745762716
-0.48258859784283525
-0.48258859784283525
-0.48258859784283525
-0.4795839753466873
-0.4795839753466873
-0.4795839753466873
-0.47831278890600926
-0.47831278890600926
-0.47831278890600926
-0.5055855161787366
-0.5055855161787366
-0.5109013867488444
-0.5109013867488444
-0.5109013867488444
-0.5085901386748845
-0.5085901386748845
-0.5140215716486903
-0.5140215716486903
-0.5118258859784284
-0.5118258859784284
-0.5118258859784284
-0.5148305084745762
-0.5148305084745762
-0.5121725731895224
-0.5121725731895224
-0.5121725731895224
-0.5121725731895224
-0.5139060092449923
-0.5139060092449923
-0.5139060092449923
-0.520608628659476
-0.520608628659476
-0.519568567026194
-0.519568567026194
-0.521879815100154
-0.521879815100154
-0.521879815100154
-0.527426810477658
-0.527426810477658
-0.527426810477658
-0.5214175654853621
-0.5214175654853621
-0.5214175654853621
-0.5281201848998458
-0.5281201848998458
-0.5281201848998458
-0.525231124807396
-0.525231124807396
-0.5177195685670262
-0.5177195685670262
-0.5177195685670262
-0.5298536209553159
-0.5298536209553159
-0.5298536209553159
-0.5367873651771957
-0.5367873651771957
-0.5367873651771957
-0.5315870570107859
-0.5315870570107859
-0.521186440677966
-0.521186440677966
-0.5032742681047766
-0.5032742681047766
-0.5032742681047766
-0.4947226502311248
-0.4947226502311248
-0.4947226502311248
-0.4840909090909091
-0.4840909090909091
-0.48305084745762716
-0.48305084745762716
-0.4880200308166409
-0.4880200308166409
-0.4880200308166409
-0.4880200308166409
-0.4874422187981511
-0.4874422187981511
-0.4874422187981511
-0.4903312788906009
-0.4903312788906009
-0.4860554699537749
-0.4860554699537749
-0.4828197226502311
-0.4828197226502311
-0.4828197226502311
-0.4780816640986132
-0.4780816640986132
-0.4780816640986132
-0.46929892141756535
-0.46929892141756535
-0.46929892141756535
-0.4627118644067796
-0.4627118644067796
-0.4627118644067796
-0.45543143297380584
-0.45543143297380584
-0.46525423728813564
-0.46525423728813564
-0.46525423728813564
-0.4765793528505393
-0.4765793528505393
-0.4765793528505393
-0.46999229583975355
-0.46999229583975355
-0.46999229583975355
-0.4765793528505393
-0.4765793528505393
-0.4757704160246532
-0.4757704160246532
-0.47461479198767353
-0.47461479198767353
-0.47461479198767353
-0.48143297380585515
-0.48143297380585515
-0.48143297380585515
-0.48374422187981514
-0.48374422187981514
-0.48374422187981514
-0.4929892141756549
-0.4929892141756549
-0.5013097072419107
-0.5013097072419107
-0.5013097072419107
-0.4931047765793528
-0.4931047765793528
-0.4931047765793528
-0.48940677966101687
-0.48940677966101687
-0.4846687211093992
-0.4846687211093992
-0.4846687211093992
-0.47946841294298914
-0.47946841294298914
-0.4712634822804316
-0.4712634822804316
-0.4712634822804316
-0.46259630200308166
-0.46259630200308166
-0.46259630200308166
-0.46259630200308166
-0.47241910631741146
-0.47241910631741146
-0.49021571648690276
-0.49021571648690276
-0.49842064714946077
-0.49842064714946077
-0.49842064714946077
-0.4996918335901388
-0.4996918335901388
-0.4996918335901388
-0.5013097072419107
-0.5013097072419107
-0.5013097072419107
-0.5069722650231125
-0.5069722650231125
-0.5090523882896765
-0.5090523882896765
-0.5090523882896765
-0.5029275808936826
-0.5029275808936826
-0.5032742681047766
-0.5032742681047766
-0.5032742681047766
-0.49795839753466886
-0.49795839753466886
-0.49795839753466886
-0.49761171032357465
-0.49761171032357465
-0.491140215716487
-0.491140215716487
-0.491140215716487
-0.4813174114021572
-0.4813174114021572
-0.483975346687211
-0.483975346687211
-0.47634822804314325
-0.47634822804314325
-0.47634822804314325
-0.4710323574730353
-0.4710323574730353
-0.4731124807395992
-0.4731124807395992
-0.4731124807395992
-0.4731124807395992
-0.48617103235747305
-0.48617103235747305
-0.48617103235747305
-0.5021186440677966
-0.5021186440677966
-0.5124036979969184
-0.5124036979969184
-0.5119414483821264
-0.5119414483821264
-0.5119414483821264
-0.5141371340523884
-0.5141371340523884
-0.5141371340523884
-0.5126348228043143
-0.5126348228043143
-0.5126348228043143
-0.5144838212634824
-0.5144838212634824
-0.5126348228043143
-0.5126348228043143
-0.5126348228043143
-0.5078967642526964
-0.5078967642526964
-0.5084745762711864
-0.5084745762711864
-0.5084745762711864
-0.5008474576271186
-0.5008474576271186
-0.5008474576271186
-0.4942604006163329
-0.4942604006163329
-0.49518489984591674
-0.49518489984591674
-0.49518489984591674
-0.49518489984591674
-0.49090909090909096
-0.49090909090909096
-0.4903312788906009
-0.4903312788906009
-0.4820107858243452
-0.4820107858243452
-0.4820107858243452
-0.47681047765793516
-0.47681047765793516
-0.47681047765793516
-0.4996918335901388
-0.4996918335901388
-0.4996918335901388
-0.5087057010785825
-0.5087057010785825
-0.5087057010785825
-0.5145993836671803
-0.5145993836671803
-0.5145993836671803
-0.5065100154083205
-0.5065100154083205
-0.49911402157164875
-0.49911402157164875
-0.49911402157164875
-0.5008474576271186
-0.5008474576271186
-0.5008474576271186
-0.49564714946070865
-0.49564714946070865
-0.49564714946070865
-0.4985362095531587
-0.4985362095531587
-0.49842064714946077
-0.49842064714946077
-0.49842064714946077
-0.49402927580893685
-0.49402927580893685
-0.5009630200308166
-0.5009630200308166
-0.5009630200308166
-0.4953004622496149
-0.4953004622496149
-0.4953004622496149
-0.49634052388289684
-0.49634052388289684
-0.4970338983050848
-0.4970338983050848
-0.4970338983050848
-0.483975346687211
-0.483975346687211
-0.483975346687211
-0.48570878274268114
-0.48570878274268114
-0.4883667180277351
-0.4883667180277351
-0.4883667180277351
-0.5061633281972264
-0.5061633281972264
-0.5061633281972264
-0.5117103235747303
-0.5117103235747303
-0.5117103235747303
-0.5026964560862865
-0.5026964560862865
-0.5026964560862865
-0.5014252696456085
-0.5014252696456085
-0.4973805855161788
-0.4973805855161788
-0.4973805855161788
-0.49206471494607085
-0.49206471494607085
-0.4918335901386748
-0.4918335901386748
-0.4918335901386748
-0.4890600924499229
-0.4890600924499229
-0.4890600924499229
-0.49090909090909096
-0.49090909090909096
-0.4970338983050848
-0.4970338983050848
-0.4970338983050848
-0.4919491525423729
-0.4919491525423729
-0.4919491525423729
-0.49402927580893685
-0.49402927580893685
-0.49402927580893685
-0.4903312788906009
-0.4903312788906009
-0.4903312788906009
-0.48536209553158693
-0.48536209553158693
-0.484899845916795
-0.484899845916795
-0.484899845916795
-0.47669491525423746
-0.47669491525423746
-0.47669491525423746
-0.4654853620955317
-0.4654853620955317
-0.3870184899845919
-0.3870184899845919
-0.3870184899845919
-0.30046224961479195
-0.30046224961479195
-0.3266949152542371
-0.3266949152542371
-0.3266949152542371
-0.5635978428351309
-0.5635978428351309
-0.5635978428351309
-0.7698767334360554
-0.7698767334360554
-0.7925269645608629
-0.7925269645608629
-0.7925269645608629
-0.676502311248074
-0.676502311248074
-0.52557781201849
-0.52557781201849
-0.52557781201849
-0.48697996918335895
-0.48697996918335895
-0.48697996918335895
-0.48697996918335895
-0.4998073959938365
-0.4998073959938365
-0.5009630200308166
-0.5009630200308166
-0.5009630200308166
-0.4947226502311248
-0.4947226502311248
-0.4985362095531587
-0.4985362095531587
-0.4985362095531587
-0.49518489984591674
-0.49518489984591674
-0.49518489984591674
-0.492180277349769
-0.492180277349769
-0.49402927580893685
-0.49402927580893685
-0.49402927580893685
-0.5035053929121724
-0.5035053929121724
-0.523382126348228
-0.523382126348228
-0.526964560862866
-0.526964560862866
-0.526964560862866
-0.5196841294298922
-0.5196841294298922
-0.5179506933744221
-0.5179506933744221
-0.5179506933744221
-0.5121725731895224
-0.5121725731895224
-0.5121725731895224
-0.5165639445300463
-0.5165639445300463
-0.521879815100154
-0.521879815100154
-0.521879815100154
-0.523497688751926
-0.523497688751926
-0.523497688751926
-0.526848998459168
-0.526848998459168
-0.526848998459168
-0.521879815100154
-0.521879815100154
-0.521879815100154
-0.5201463790446841
-0.5201463790446841
-0.5210708782742681
-0.5210708782742681
-0.5210708782742681
-0.5133281972265022
-0.5133281972265022
-0.5133281972265022
-0.5122881355932203
-0.5122881355932203
-0.5088212634822804
-0.5088212634822804
-0.5088212634822804
-0.5088212634822804
-0.5088212634822804
-0.5088212634822804
-0.52557781201849
-0.52557781201849
-0.5306625577812019
-0.5306625577812019
-0.5306625577812019
-0.5180662557781202
-0.5180662557781202
-0.5015408320493067
-0.5015408320493067
-0.5015408320493067
-0.4942604006163329
-0.4942604006163329
-0.49322033898305095
-0.49322033898305095
-0.49322033898305095
-0.49322033898305095
-0.4805084745762711
-0.4805084745762711
-0.4805084745762711
-0.4723035439137133
-0.4723035439137133
-0.4686055469953776
-0.4686055469953776
-0.46652542372881367
-0.46652542372881367
-0.46652542372881367
-0.4622496147919877
-0.4622496147919877
-0.4622496147919877
-0.4520801232665641
-0.4520801232665641
-0.4520801232665641
-0.45150231124807405
-0.45150231124807405
-0.45150231124807405
-0.45427580893682595
-0.45427580893682595
-0.44919106317411406
-0.44919106317411406
-0.44919106317411406
-0.45947611710323577
-0.45947611710323577
-0.45947611710323577
-0.4706856702619415
-0.4706856702619415
-0.4706856702619415
-0.4729969183359015
-0.4729969183359015
-0.47091679506933737
-0.47091679506933737
-0.47091679506933737
-0.4650231124807396
-0.4650231124807396
-0.46456086286594767
-0.46456086286594767
-0.46456086286594767
-0.45855161787365173
-0.45855161787365173
-0.45265793528505394
-0.45265793528505394
-0.45265793528505394
-0.4622496147919877
-0.4622496147919877
-0.4622496147919877
-0.4561248073959938
-0.4561248073959938
-0.4561248073959938
-0.45693374422187993
-0.45693374422187993
-0.4612095531587057
-0.4612095531587057
-0.4604006163328198
-0.4604006163328198
-0.4604006163328198
-0.46606317411402154
-0.46606317411402154
-0.46606317411402154
-0.46652542372881367
-0.46652542372881367
-0.46652542372881367
-0.46652542372881367
-0.4770416024653312
-0.4770416024653312
-0.4899845916795069
-0.4899845916795069
-0.4899845916795069
-0.49668721109399083
-0.49668721109399083
-0.5045454545454544
-0.5045454545454544
-0.5045454545454544
-0.4981895223420647
-0.4981895223420647
-0.4981895223420647
-0.49010015408320506
-0.49010015408320506
-0.4880200308166409
-0.4880200308166409
-0.47912172573189515
-0.47912172573189515
-0.47912172573189515
-0.47819722650231133
-0.47819722650231133
-0.47634822804314325
-0.47634822804314325
-0.47634822804314325
-0.4695300462249614
-0.4695300462249614
-0.4748459167950694
-0.4748459167950694
-0.4748459167950694
-0.4748459167950694
-0.46895223420647136
-0.46895223420647136
-0.4740369799691835
-0.4740369799691835
-0.4740369799691835
-0.48270416024653295
-0.48270416024653295
-0.48848228043143305
-0.48848228043143305
-0.48848228043143305
-0.4981895223420647
-0.4981895223420647
-0.4981895223420647
-0.4996918335901388
-0.4996918335901388
-0.4996918335901388
-0.5032742681047766
-0.5032742681047766
-0.5134437596302004
-0.5134437596302004
-0.5134437596302004
-0.5087057010785825
-0.5087057010785825
-0.5087057010785825
-0.5023497688751927
-0.5023497688751927
-0.5023497688751927
-0.4970338983050848
-0.4970338983050848
-0.4970338983050848
-0.47276579352850545
-0.47276579352850545
-0.3923343605546996
-0.3923343605546996
-0.3923343605546996
-0.27642526964560865
-0.27642526964560865
-0.2678736517719569
-0.2678736517719569
-0.4792372881355933
-0.4792372881355933
-0.4792372881355933
-0.7192604006163329
-0.7192604006163329
-0.7921802773497688
-0.7921802773497688
-0.7921802773497688
-0.7921802773497688
-0.7259630200308167
-0.7259630200308167
-0.5529661016949152
-0.5529661016949152
-0.4847842835130969
-0.4847842835130969
-0.4847842835130969
-0.4933359013867489
-0.4933359013867489
-0.4933359013867489
-0.5050077041602465
-0.5050077041602465
-0.5050077041602465
-0.5039676425269646
-0.5039676425269646
-0.5039676425269646
-0.49795839753466886
-0.49795839753466886
-0.49795839753466886
-0.5015408320493067
-0.5015408320493067
-0.5011941448382127
-0.5011941448382127
-0.5011941448382127
-0.5030431432973805
-0.5030431432973805
-0.5030431432973805
-0.49749614791987673
-0.49749614791987673
-0.4954160246533128
-0.4954160246533128
-0.4954160246533128
-0.49992295839753464
-0.49992295839753464
-0.49992295839753464
-0.4970338983050848
-0.4970338983050848
-0.5052388289676425
-0.5052388289676425
-0.5052388289676425
-0.5141371340523884
-0.5141371340523884
-0.5159861325115562
-0.5159861325115562
-0.5159861325115562
-0.5243066255778119
-0.5243066255778119
-0.5243066255778119
-0.5307781201848998
-0.5307781201848998
-0.5307781201848998
-0.5307781201848998
-0.5307781201848998
-0.5307781201848998
-0.5307781201848998
-0.5307781201848998
-0.5260400616332819
-0.5260400616332819
-0.5297380585516178
-0.5297380585516178
-0.5297380585516178
-0.5310092449922958
-0.5310092449922958
-0.5310092449922958
-0.5306625577812019
-0.5306625577812019
-0.5385208012326657
-0.5385208012326657
-0.5385208012326657
-0.5326271186440679
-0.5326271186440679
-0.5207241910631741
-0.5207241910631741
-0.5207241910631741
-0.5058166409861324
-0.5058166409861324
-0.5058166409861324
-0.4862865947611712
-0.4862865947611712
-0.47600154083204926
-0.47600154083204926
-0.47600154083204926
-0.4742681047765793
-0.4742681047765793
-0.492180277349769
-0.492180277349769
-0.492180277349769
-0.4983050847457626
-0.4983050847457626
-0.4983050847457626
-0.4983050847457626
-0.49668721109399083
-0.49668721109399083
-0.49842064714946077
-0.49842064714946077
-0.4906779661016949
-0.4906779661016949
-0.4906779661016949
-0.4800462249614792
-0.4800462249614792
-0.4800462249614792
-0.4694144838212635
-0.4694144838212635
-0.4694144838212635
-0.4571648690292758
-0.4571648690292758
-0.4588983050847457
-0.4588983050847457
-0.4588983050847457
-0.46144067796610155
-0.46144067796610155
-0.46144067796610155
-0.46063174114021566
-0.46063174114021566
-0.4656009244992294
-0.4656009244992294
-0.4656009244992294
-0.4634052388289678
-0.4634052388289678
-0.46525423728813564
-0.46525423728813564
-0.46525423728813564
-0.4620184899845916
-0.4620184899845916
-0.4620184899845916
-0.46016949152542375
-0.46016949152542375
-0.4795839753466873
-0.4795839753466873
-0.485246533127889
-0.485246533127889
-0.485246533127889
-0.4864021571648689
-0.4864021571648689
-0.4864021571648689
-0.4876733436055469
-0.4876733436055469
-0.4876733436055469
-0.4803929121725732
-0.4803929121725732
-0.4803929121725732
-0.47819722650231133
-0.47819722650231133
-0.47507704160246544
-0.47507704160246544
-0.47507704160246544
-0.47392141756548534
-0.47392141756548534
-0.47392141756548534
-0.47322804314329736
-0.47322804314329736
-0.47322804314329736
-0.4677966101694915
-0.4677966101694915
-0.47045454545454546
-0.47045454545454546
-0.47045454545454546
-0.4772727272727273
-0.4772727272727273
-0.4772727272727273
-0.47519260400616314
-0.47519260400616314
-0.4697611710323575
-0.4697611710323575
-0.4697611710323575
-0.4623651771956856
-0.4623651771956856
-0.47634822804314325
-0.47634822804314325
-0.47634822804314325
-0.4903312788906009
-0.4903312788906009
-0.4903312788906009
-0.49010015408320506
-0.49010015408320506
-0.489522342064715
-0.489522342064715
-0.489522342064715
-0.48663328197226496
-0.48663328197226496
-0.4922958397534667
-0.4922958397534667
-0.4922958397534667
-0.4922958397534667
-0.4983050847457626
-0.4983050847457626
-0.49518489984591674
-0.49518489984591674
-0.49518489984591674
-0.4941448382126348
-0.4941448382126348
-0.48940677966101687
-0.48940677966101687
-0.48940677966101687
-0.4922958397534667
-0.4922958397534667
-0.4922958397534667
-0.4955315870570107
-0.4955315870570107
-0.4955315870570107
-0.46883667180277344
-0.46883667180277344
-0.39845916795069325
-0.39845916795069325
-0.39845916795069325
-0.30959167950693356
-0.30959167950693356
-0.30959167950693356
-0.29537750385208006
-0.29537750385208006
-0.5022342064714946
-0.5022342064714946
-0.5022342064714946
-0.7712634822804314
-0.7712634822804314
-0.7986517719568567
-0.7986517719568567
-0.7986517719568567
-0.6814714946070878
-0.6814714946070878
-0.6814714946070878
-0.524537750385208
-0.524537750385208
-0.4780816640986132
-0.4780816640986132
-0.4780816640986132
-0.4851309707241911
-0.4851309707241911
-0.4929892141756549
-0.4929892141756549
-0.4929892141756549
-0.4929892141756549
-0.492526964560863
-0.492526964560863
-0.492526964560863
-0.48582434514637907
-0.48582434514637907
-0.4919491525423729
-0.4919491525423729
-0.4919491525423729
-0.4929892141756549
-0.4929892141756549
-0.4887134052388289
-0.4887134052388289
-0.4887134052388289
-0.483975346687211
-0.483975346687211
-0.483975346687211
-0.483975346687211
-0.4761171032357474
-0.4761171032357474
-0.48224191063174104
-0.48224191063174104
-0.49437596302003084
-0.49437596302003084
-0.49437596302003084
-0.4954160246533128
-0.4954160246533128
-0.5038520801232667
-0.5038520801232667
-0.5038520801232667
-0.4983050847457626
-0.4983050847457626
-0.4996918335901388
-0.4996918335901388
-0.4996918335901388
-0.5025808936825886
-0.5025808936825886
-0.5025808936825886
-0.5025808936825886
-0.5026964560862865
-0.5026964560862865
-0.5098613251155625
-0.5098613251155625
-0.5125192604006163
-0.5125192604006163
-0.5147149460708782
-0.5147149460708782
-0.5147149460708782
-0.5147149460708782
-0.5197996918335901
-0.5197996918335901
-0.5197996918335901
-0.5147149460708782
-0.5147149460708782
-0.5147149460708782
-0.5156394453004622
-0.5156394453004622
-0.5081278890600924
-0.5081278890600924
-0.5000385208012327
-0.5000385208012327
-0.5000385208012327
-0.5059322033898306
-0.5059322033898306
-0.5059322033898306
-0.5059322033898306
-0.5031587057010786
-0.5031587057010786
-0.4946070878274269
-0.4946070878274269
-0.48663328197226496
-0.48663328197226496
-0.48663328197226496
-0.47912172573189515
-0.47912172573189515
-0.4800462249614792
-0.4800462249614792
-0.4800462249614792
-0.47392141756548534
-0.47392141756548534
-0.47080123266563945
-0.47080123266563945
-0.47080123266563945
-0.4733436055469955
-0.4733436055469955
-0.4733436055469955
-0.4610939907550078
-0.4610939907550078
-0.46028505392912167
-0.46028505392912167
-0.46028505392912167
-0.4571648690292758
-0.4571648690292758
-0.4571648690292758
-0.4478043143297381
-0.4478043143297381
-0.4478043143297381
-0.4429506933744223
-0.4429506933744223
-0.4429506933744223
-0.43694144838212634
-0.43694144838212634
-0.43694144838212634
-0.448613251155624
-0.448613251155624
-0.45462249614791994
-0.45462249614791994
-0.45462249614791994
-0.4599383667180277
-0.4599383667180277
-0.4599383667180277
-0.4695300462249614
-0.4695300462249614
-0.4695300462249614
-0.46837442218798153
-0.46837442218798153
-0.4769260400616333
-0.4769260400616333
-0.4769260400616333
-0.4749614791987673
-0.4749614791987673
-0.46756548536209563
-0.46756548536209563
-0.46756548536209563
-0.4674499229583975
-0.4674499229583975
-0.4674499229583975
-0.46167180277349784
-0.46167180277349784
-0.4643297380585516
-0.4643297380585516
-0.4643297380585516
-0.4697611710323575
-0.4697611710323575
-0.4697611710323575
-0.46883667180277344
-0.46883667180277344
-0.4647919876733435
-0.4647919876733435
-0.4647919876733435
-0.4631741140215717
-0.4631741140215717
-0.47461479198767353
-0.47461479198767353
-0.47461479198767353
-0.4860554699537749
-0.4860554699537749
-0.4860554699537749
-0.48536209553158693
-0.48536209553158693
-0.48536209553158693
-0.49241140215716483
-0.49241140215716483
-0.49668721109399083
-0.49668721109399083
-0.49668721109399083
-0.4955315870570107
-0.4955315870570107
-0.4955315870570107
-0.49946070878274273
-0.49946070878274273
-0.49946070878274273
-0.4929892141756549
-0.4929892141756549
-0.48848228043143305
-0.48848228043143305
-0.48848228043143305
-0.48270416024653295
-0.48270416024653295
-0.4757704160246532
-0.4757704160246532
-0.4757704160246532
-0.47553929121725735
-0.47553929121725735
-0.47553929121725735
-0.4705701078582434
-0.4705701078582434
-0.4705701078582434
-0.4705701078582434
-0.4705701078582434
-0.4695300462249614
-0.4695300462249614
-0.4695300462249614
-0.4710323574730353
-0.4710323574730353
-0.4854776579352851
-0.4854776579352851
-0.4854776579352851
-0.4907935285053928
-0.4907935285053928
-0.48813559322033884
-0.48813559322033884
-0.48813559322033884
-0.48813559322033884
-0.4993451463790446
-0.4993451463790446
-0.4993451463790446
-0.5029275808936826
-0.5029275808936826
-0.5029275808936826
-0.5044298921417566
-0.5044298921417566
-0.5060477657935285
-0.5060477657935285
-0.5060477657935285
-0.5007318952234208
-0.5007318952234208
-0.5007318952234208
-0.5007318952234208
-0.4983050847457626
-0.4983050847457626
-0.4983050847457626
-0.4929892141756549
-0.4929892141756549
-0.4929892141756549
-0.4929892141756549
-0.48882896764252703
-0.48882896764252703
-0.48882896764252703
-0.48882896764252703
-0.4919491525423729
-0.4919491525423729
-0.4919491525423729
-0.4919491525423729
-0.4919491525423729
-0.4823574730354392
-0.4823574730354392
-0.4823574730354392
-0.47276579352850545
-0.47276579352850545
-0.47276579352850545
-0.4694144838212635
-0.4694144838212635
-0.4694144838212635
-0.4694144838212635
-0.47623266563944533
-0.47623266563944533
-0.47623266563944533
-0.47623266563944533
-0.47623266563944533
-0.48813559322033884
-0.48813559322033884
-0.48813559322033884
-0.48813559322033884
-0.48651771956856704
-0.48651771956856704
-0.48651771956856704
-0.4983050847457626
-0.4983050847457626
-0.4983050847457626
-0.5052388289676425
-0.5052388289676425
-0.5052388289676425
-0.5052388289676425
-0.5070878274268105
-0.5070878274268105
-0.5070878274268105
-0.5133281972265022
-0.5133281972265022
-0.5076656394453005
-0.5076656394453005
-0.5031587057010786
-0.5031587057010786
-0.5031587057010786
-0.5024653312788905
-0.5024653312788905
-0.5024653312788905
-0.4969183359013867
-0.4969183359013867
-0.4969183359013867
-0.49044684129429905
-0.49044684129429905
-0.49044684129429905
-0.4776194144838213
-0.4776194144838213
-0.4776194144838213
-0.47369029275808927
-0.47369029275808927
-0.4757704160246532
-0.4757704160246532
-0.4757704160246532
-0.4697611710323575
-0.4697611710323575
