20.85111215643554
24.42512948685361
27.79744693676813
30.86801866254111
33.55888180980541
35.81934440350238
37.62875137788563
38.9963626323877
39.95816256879782
40.57094821390724
40.90458418305447
41.03359474093703
41.02923998625312
40.95302614982722
40.85233594842981
40.75855702666372
40.68774600153878
40.64352056766014
40.62152254057559
40.61444562675579
40.61642207896253
40.62576455756367
40.64568714795885
40.68332613567841
40.74776063793884
40.84774839486631
40.98974129781221
41.17658088594679
41.40712172093148
41.67687306179354
41.97956059305426
42.30924050253439
42.6622603879192
43.03817600201282
43.43901156858576
43.86698065532147
44.32150029411341
44.79658641805946
45.27950918462505
45.75119308480588
46.18846860524411
46.56795998728209
46.87112311501834
47.08971001736987
47.23067532100118
47.31927387717553
47.39908269000182
47.52823975227626
47.77225980845386
48.19480652149014
48.8482563250372
49.76575584766529
50.95604867369025
52.40184832195927
54.06200853556632
55.87719702377857
57.77823258404812
59.69568862809973
61.56886937279396
63.35214385060914
65.01723794657397
66.5513365879979
67.95210107091918
69.22136819125319
70.35929084801533
71.36028175128423
72.21159438851049
72.8948415037057
73.39023453295107
73.68278069481526
73.76905695398982
73.6626317842805
73.39612823604342
73.01868472032517
72.58901625440062
72.16569948646223
71.79703995228056
71.51281372423017
71.31960322498952
71.20067692691336
71.12055210889547
71.03359723614109
70.8953028805406
70.67417578339928
70.36169285297913
69.97774096488315
69.56983342175137
69.20601382166309
68.96303598684732
68.91243620160068
69.10729591892964
69.57208197971539
70.29726226646541
71.23958778324884
72.32805202275533
73.4746042749561
74.58774395513186
75.5863160053509
76.41053726682344
77.02789312407872
77.43298975747429
77.64211715563842
77.6844763232132
77.59245697870621
77.39315117661828
77.10273349819317
76.72464106640133
76.25174795668514
75.67197222346178
74.97597504817452
74.16490582191362
73.25583156636243
72.28293453492778
71.29378076081544
70.34146887069188
69.47462434264486
68.72764769045614
68.11339142341323
67.61979479173442
67.21120853431802
66.83433557650959
66.42793135958094
65.93464242630434
65.31269415872475
64.54485072569409
63.64250304953053
62.64391507287545
61.60713840577836
60.59931133140372
59.68465396928178
58.91346036654613
58.31396448834742
57.88832486263941
57.61326161095164
57.44513600977459
57.32848000108076
57.20622356548442
57.02939759978847
56.76424756733904
56.39552447348705
55.925855001609
55.37204661050317
54.75968817094753
54.11747268729165
53.47244870505289
52.84704665647045
52.25830472405936
51.71925380877637
51.24188635438846
50.84055896423703
50.534300461371
50.3466603632066
50.30252067206055
50.42236511296352
50.71536531861076
51.17301195435923
51.76488749315908
52.43772014683406
53.11827233310984
53.72002191351601
54.1530068168671
54.33557603478148
54.20615198589879
53.7327218657322
52.91800788339386
51.79920290150771
50.44243356705372
48.93320761667082
47.36471070423022
45.82593392380142
44.39138639929873
43.11373216250483
42.02018331288022
41.11291190706199
40.37308537922065
39.76741445817621
39.2555692508074
38.796811627496
38.35477870509342
37.9001850156559
37.41184964139061
36.87672881311
36.28964229595466
35.65325627394516
34.97868193277025
34.28681847944201
33.61036556309433
32.99620131798618
32.50748644634442
32.22455850758472
32.24376496086479
32.67396629814112
33.6312089374584
35.23258750358722
37.59041117518504
40.80755620044248
44.97448185226593
50.16790074543566
56.45057992913077
63.87124258853837
72.46305678646853
82.23885636084572
93.18141204402995
105.2281592597374
118.2516765834977
132.0391272281283
146.2749932769066
160.5314466685878
174.2698185139518
186.8552256894525
197.5848093146378
205.7283615967304
210.5783068812876
211.5041057788424
208.0046316615291
199.7516949992218
186.6191963905264
168.6951020122862
146.276421404006
119.8493665629359
90.05735257660771
57.65879446974647
23.47566917830129
-11.66633766633307
-47.00401069997559
-81.90459176886543
-115.9276769947227
-148.8689357746129
-180.7707401823227
-211.8876001666009
-242.6044374963062
-273.3190323364839
-304.3099646908267
-335.6150319346862
-366.9437928892163
-397.6436710032448
-426.7322860080383
-452.9992149667221
-475.1689796765041
-492.1040512383443
-503.0123353192054
-507.6129374816568
-506.21673746236
-499.6987129368372
-489.3684340459659
-476.7693426595764
-463.4486422887661
-450.7397300188055
-439.5931025676794
-430.4821286017376
-423.3977623252517
-417.9321897888721
-413.4356412805623
-409.2130192667821
-404.712708502069
-399.6593554581761
-394.100225207847
-388.3625157352257
-382.9427113457151
-378.3610979665789
-375.0162778974811
-373.0702688862596
-372.3870042169128
-372.5367400142532
-372.8670368305855
-372.6276858319969
-371.1223884037073
-367.8490545191378
-362.5916400338098
-355.441972197372
-346.7521239415823
-337.0356941929483
-326.8447728503158
-316.6499673217726
-306.7470170254679
-297.2070339469534
-287.879090187043
-278.4445130882309
-268.5118020228102
-257.7299456004889
-245.8903486659932
-232.9897222831994
-219.2389205378068
-205.0192897454997
-190.8009658584247
-177.0436093263951
-164.1006426999746
-152.1455277309872
-141.1341189773974
-130.8110946266444
-120.7612975734711
-110.4981700994909
-99.5715991433868
-87.67028651172424
-74.69453188756441
-60.78456018882798
-46.30202352211014
-31.77243715418106
-17.80190349203266
-4.983402528149197
6.192175649440437
15.40637453889947
22.55338961929429
27.74245842369788
31.26105518157503
33.50672994670656
34.90420034051461
35.82741307116999
36.54220914429356
37.17738874156879
37.7246455268458
38.06297136274273
38.00055443575313
37.32596616277665
35.85980965318143
33.49780219753065
30.23704831594941
26.18029313409969
21.51868732388422
16.49979221782142
11.39063314355522
6.444406388125972
1.875914794525562
-2.152652242008485
-5.536280715757099
-8.22381444090841
-10.20885148392465
-11.51707598661553
-12.19248043328846
-12.28501579991434
-11.84168643844481
-10.90199603232865
-9.497557500483959
-7.655105344243035
-5.401955738378253
-2.772797357482983
0.1834524274998177
3.39799929516805
6.778931552454282
10.21150009586949
13.56278324149162
16.69105567831263
19.45940942295811
21.75220458753971
23.49170556497681
24.65119313876344
25.26086077764496
25.40436229400697
25.20629591001258
24.81300606361288
24.37021310042365
24.0012585626897
23.78951606763013
23.76787253218682
23.9171510647175
24.17403511679736
24.44742948669127
24.64017307449595
24.67118017907796
24.49264940575987
24.09852525001198
23.52311151112982
22.83123096631703
22.1028316716029
21.41553541442486
20.82865542625211
20.37180649714745
20.04040553292876
19.79919477162083
19.59334508590077
19.36461718831787
19.06810167621764
18.68453375842046
18.2247135471329
17.72529478825919
17.23766575087892
16.81303083135288
16.48722084191985
16.26861288102375
16.13197023507904
16.02002107550693
15.85327610441703
15.54691398052834
15.03147419684809
14.27223519437879
13.28184926184709
12.12266685362687
10.89825421533724
9.736307027212833
8.766662829605211
8.098601929588652
7.801539939190225
7.892643799914675
8.333803439740864
9.038895798489449
9.89041010464033
10.76219361210892
11.54297083413897
12.15477105439556
12.56213915831362
12.77104613991987
12.81913184646145
12.76043960111086
12.64831828140971
12.52013694347158
12.38701056106839
12.23084264647232
12.00973154291413
11.67109147577833
11.16958384474037
10.48482937788649
9.633362192769903
8.67110464092721
7.685775624720338
6.781400494769308
6.058591830268834
5.594714214254192
5.427889079946721
5.548144897413168
5.897872515633983
6.382260646877827
6.888516011810762
7.310257983435404
7.571233179998858
7.642015152933816
7.54540259939356
7.349707962059051
7.152210702891507
7.056793087143333
7.150381307802487
7.48276322725505
8.053758480822225
8.810552083753947
9.656387354481925
10.46966995157794
11.12972309353954
11.542805586243
11.66135255352605
11.49156754761146
11.08826836510456
10.53925819079953
9.943416436512376
9.387381557899282
8.925641936487317
8.568185758911778
8.278587949631765
7.983688084816714
7.593736230122823
7.028861630138286
6.244886037127369
5.250868526090472
4.113272120026508
2.945905563184021
1.888550612896196
1.079275733723622
0.6261218032178499
0.5837275952233006
0.9396707548591001
1.613798512751995
2.471778288319122
3.351422524650086
4.096841500962579
4.592208195587818
4.786144493314624
4.700534488589313
4.422415437206306
4.081948779420801
3.821992311179577
3.765721459066042
3.988733568939973
4.501259202887908
5.244460663472061
6.102500909345805
6.929022497948608
7.582698288865154
7.962809396460398
8.034902927209735
7.839674350361564
7.483601923421029
7.114687577232389
6.889416330949974
6.938011808827977
7.335006003670961
8.081229584364815
9.101473546223922
10.25944761788681
11.38822426040734
12.32999124380613
12.9749938002203
13.2887585303536
13.32027762332174
13.18986165657844
13.06071306177505
13.10128389640595
13.4464572233778
14.16536367574099
15.24245086577291
16.57625836297594
17.99745350058781
19.30396597144475
20.30633848174456
20.87216097201764
20.95765084579432
20.61836082994082
19.99749492849726
19.29602737649084
18.73204082427939
18.49777913404007
18.72272655901397
19.44982867841987
20.62976345892359
22.13518536603764
23.79298587580151
25.42767414820204
26.90458283637036
28.160853093558
29.2162877841277
30.16283273058087
31.13713204402958
32.28361300498303
33.71635562742859
35.48759555462538
37.56943445422409
39.85317331633005
42.16774826291143
44.31484848662402
46.11336690048876
47.44163859576841
48.26557804595017
48.64538050893286
48.720339869783
48.67698507176565
48.70855686685333
48.97438255861267
49.56698792691591
50.49323342046029
51.67348435973476
52.95994580243458
54.1715339796276
55.13790919133235
55.74133637396517
55.94491433837578
55.8002998816257
55.43469679322862
55.02213212235375
54.74651939477852
54.7643669765347
55.17425329030009
55.99876426440594
57.18254506474373
58.60749605086792
60.12265735875084
61.5819781932835
62.87971276902828
63.97338268522795
64.88868982030267
65.70684154231681
66.53930685688192
67.49692105792465
68.66020617556688
70.05678985657102
71.65034130129783
73.34357782715901
74.9955787301837
76.45060096923979
77.57195358710788
78.27189045367925
78.52918619860003
78.39028471165852
77.95521503786694
77.35320961095637
76.71432670457672
76.143047676355
75.69866280820831
75.38576226799542
75.15650673697992
74.9245110833919
74.5878082025801
74.0555617531479
73.27133103356512
72.22650268053731
70.96098784742345
69.55241058273137
68.09776852045108
66.69242815277819
65.41091598216208
64.29297304389209
63.33714797783657
62.50296931851793
61.72138668953105
60.91145598783351
59.9992952600774
58.93417646987845
57.69740516083348
56.30223206820775
54.78595360822755
53.19722822430222
51.58216051744211
49.97229578640992
48.37681272874685
46.78023728128021
45.14608579999172
43.42591798674775
41.57214825098703
39.55173124828466
37.35718412534487
35.01204144988441
32.56960336990972
30.105771966972
27.70803240155395
25.46303766841189
23.44504112976121
21.70689641576136
20.27473996022179
19.14689926715446
18.29698808914959
17.68043574818827
17.24290166515538
16.92852861340146
16.68619476240456
16.47278177490803
16.25350006840675
16.0000621256657
15.68782731568074
15.29300546038398
14.79072635549193
14.15443610712745
13.35681157168907
12.37217572704622
11.18011164725666
9.769570788500793
8.142446848521526
6.315598872559529
4.32069931742621
2.201857333633269
0.01149099814896037
-2.194750532584887
-4.363134763777112
-6.446306150521897
-8.40651481760451
-10.21729018481368
-11.86345681061539
-13.33963813459185
-14.64766569771174
-15.79352900539367
-16.78454781745759
-17.62728785125288
-18.32646762890681
-18.88484696467302
-19.30390855362019
-19.58504248010875
-19.73090232925063
-19.74661336889739
-19.64056866993507
-19.42462560607883
-19.11361025163752
-18.72418284616573
-18.27330489766296
-17.77667810686711
-17.24750673583556
-16.69579442603465
-16.12821872502431
-15.54849493173962
-14.95805778862271
-14.35685148978275
-13.74402970417727
-13.11842905480414
-12.47877161809075
-11.82365311308685
-11.15147888279131
-10.46058764422853
-9.749776711704433
-9.019283248957827
-8.272063327852218
-7.515048810640947
-6.759999443807414
-6.023608012323576
-5.326642842645219
-4.692091739374499
-4.142472546212128
-3.696674127940042
-3.366862391770946
-3.156083942641469
-3.057147654883686
-3.053104554810971
-3.119244755763364
-3.226164516534319
-3.343260726377083
-3.441985524142269
-3.498283798992019
-3.493819924719806
-3.415878078602153
-3.256145078825013
-3.008863115521696
-2.6690094595498
-2.231191079203962
-1.689773912796747
-1.040363187793176
-0.2822408677828189
0.5789971504863981
1.529427862775907
2.546066850495458
3.597804885316671
4.648116319975079
5.659312823525267
6.597765331658517
7.439202411991209
8.17298062385895
8.80420221568424
9.35286629716878
9.849929415363713
10.3310000852305
10.8290159677433
11.36742894158329
11.95522185429711
12.58468953362597
13.23244560698426
13.86358903210024
14.43840978184496
14.9204916764056
15.28464798766758
15.52293109786093
15.64720995412684
15.68760751486862
15.68717914427282
15.69412007295424
15.75321098728905
15.89816547699488
16.14621876116239
16.4958477325183
16.92799552975085
17.41060226713053
17.90563480149338
18.37720735251938
18.79894470011471
19.1587549900234
19.45983991292702
19.71786541553733
19.95525492493005
20.19418035028439
20.44994748758461
20.72622429589766
21.01309890054097
21.288396549266
21.52209929776181
21.68311566147032
21.74703860242519
21.70303583291578
21.55796556330639
21.33645089447566
21.07678401171293
20.82365190602413
20.61937836725408
20.49556911165814
20.46683132437288
20.52777005459524
20.6538633562099
20.80615049851
20.93896040257612
21.00920006265383
20.9851770937336
20.85286762651394
20.61817667657967
20.30486946301018
19.94897700577443
19.59120788013717
19.26913599569035
19.01078133715526
18.83080258718504
18.72997663772787
18.69799343712216
18.71888681463641
18.77774028735854
18.86683373689624
18.9894059790166
19.15985893456676
19.40032052479118
19.73454453526822
20.18076577238041
20.74524175221455
21.41792630276995
22.17123481291252
22.96229087422267
23.73840192761488
24.44482154435944
25.03324252396289
25.46914173489543
25.73627946285338
25.83738542842828
25.79108862035381
25.626066006117
25.37392220086604
25.06241484582091
24.71038362815679
24.3252551424836
23.90342694123941
23.43327800200458
22.90003817009954
22.29132062304456
21.60191605552895
20.83662861725853
20.01051452534707
19.14664353175917
18.27213463614499
17.41354627684971
16.59272330302996
15.82399020937197
15.11322843815343
14.45897511611277
13.85526907559202
13.29555719074525
12.77663367778592
12.30147338759962
11.88006685721192
11.5279359546457
11.26268422402897
11.09945281355612
11.04637643132405
11.1010786918569
11.24899454427291
11.46395284791566
11.71106024072222
11.95151069139468
12.14851525464706
12.27319457161071
12.30916157245616
12.25476246893453
12.12250637003816
11.93589600278955
11.72443183909085
11.51786800075332
11.34084564738522
11.20886506518848
11.12624505642396
11.08632941291227
11.07379201016177
11.0685025083211
11.05009363987878
11.00220511165417
10.91546532977982
10.78863116240545
10.62781896186714
10.44423616234397
10.25113125603945
10.06078688268955
9.882298131447719
9.720639414589613
9.5771923961531
9.451564978150993
9.344235797118454
9.259334880102262
9.206751580092847
9.202816679739396
9.269090871682174
9.42926000956783
9.704647457032326
10.10925092174453
10.64538860629541
11.3009672728906
12.04910485318604
12.8504193429547
13.65779765893418
14.42295877689412
15.10371242617374
15.67057078251194
16.11137511958635
16.43291077253958
16.65908512929256
16.82600346235163
16.97497071017987
17.14485066643874
17.36524319862959
17.65167627908946
18.00357290776307
18.40521510060693
18.82935443537311
19.24261042415255
19.61145542677987
19.90748513334002
20.11086757472799
20.2113497701064
20.20687704875875
20.10053271564043
19.89690179309843
19.59899059800485
19.20655016341602
18.7162014454382
18.12329176185053
17.4250241271907
16.62411906714779
15.73208304486415
14.7711068955954
13.77379773852336
12.78041567815225
11.83394801936591
10.97396628865092
10.23054025800066
9.619465018393631
9.139779660837949
8.774115200795213
8.49187016880953
8.254667837931011
8.023109196671022
7.76356973022209
7.453739831491943
7.085834279641344
6.666910844347933
6.216422093441923
5.761738514325653
5.332724703327719
4.956499603681428
4.653358544304489
4.434535525424184
4.30205902118385
4.250483598225746
4.269881828027997
4.349227804141917
4.479230431874717
4.653828667547971
4.869956057543209
5.125717883044863
5.417602473052439
5.737602934958287
6.071138340954951
6.396511110538681
6.686348583276472
6.911038472188332
7.043652797628972
7.065420872873594
6.970580624284043
6.769458847204715
6.488928058373024
6.169936092427151
5.862470435209428
5.618883365728003
5.486788682111861
5.502728889574233
5.687614546421157
6.044634158384964
6.559917802120899
7.205736018608527
7.945537084872483
8.739783237239227
9.551413544973483
10.34989374744627
11.11321362436829
11.82775156771524
12.48645743296509
13.08614535900544
13.6247752535242
14.09947207879106
14.50576356115344
14.8381840650817
15.09205670227467
15.2659658713938
15.36419854179075
15.3983339053557
15.38729563723696
15.35557507079591
15.32987053800834
15.33486404038221
15.38910491206157
15.50194730877729
15.67225375691435
15.88920997598975
16.13516184753848
16.38995756332026
16.63593051656461
16.86244473851302
17.06890679743627
17.26540378228549
17.47066339795535
17.70771058481594
17.99818442037514
18.35659137609981
18.78575226078377
19.27441239812326
19.79753236669404
20.31926799999621
20.79817502327835
21.19377829639113
21.47334217591255
21.61753051667337
21.62377064016026
21.5065961434202
21.29494152902843
21.02706677098682
20.74426829897277
20.48467882495304
20.27831271067053
20.14417172460576
20.08977251546614
20.11296899242881
20.20548388219564
20.35717903170184
20.55985986820746
20.80946075223166
21.10589381579442
21.45058392246797
21.84247453723957
22.27376186766998
22.72667569749609
23.17235792369361
23.57241760140981
23.88315929269845
24.06190117873826
24.07432135254597
23.90143826099622
23.54469742142529
23.02782358330727
22.39469782308752
21.70343334777718
21.01774110850326
20.39726388708914
19.88869077987141
19.5192334392714
19.29356729267578
19.19468100238149
19.18833732444743
19.23017587195882
19.27399663172179
19.27953941481624
19.21822765755559
19.07592253173475
18.85257431637966
18.55942612865207
18.21485501045235
17.84000717089384
17.4552117789464
17.07781068643498
16.72158090209417
16.39748437590546
16.11516184784106
15.88440239312666
15.71579291575179
15.61998732361742
15.60555482229325
15.67595921912703
15.82658154936434
16.04270275739487
16.29911652407455
16.56168974835783
16.79079994468078
16.94620606658533
16.9926163625737
16.90503127369313
16.67286318373054
16.30192922834589
15.81378052754634
15.24244481385658
14.62927841569813
14.01697551683367
13.44380340372713
12.93895065053852
12.519619073336
12.1901972071715
11.94352529853074
11.76392218780732
11.63133185032866
11.52571369870431
11.4307412380801
11.33609870677139
11.23815422983506
11.13930609495668
11.0465765581835
10.97001833858822
10.92136504025893
10.91322413637977
10.95895402822264
11.0731383460216
11.27232282563471
11.57550248763851
12.00378496782564
12.57875049038352
13.31934533336415
14.23765685286229
15.33441055100076
16.59524599571799
17.988702043769
19.46651272825125
20.96643936893881
22.41749106665811
23.74700944097835
24.88873943218164
25.79073284133081
26.42179515156821
26.7752691096326
26.86934336575548
26.74376702016861
26.45362089325005
26.06134656842426
25.62842961636994
25.20803938370113
24.83965184904208
24.54628426960857
24.33450940104067
24.19696941622332
24.11671789523941
24.07239873991554
24.04310402718909
24.01189016723815
23.96742523556553
23.90389228655704
23.81976027296626
23.71619204555565
23.59576903913592
23.46201374469125
23.31992725643914
23.17744019733684
23.04736552193981
22.9492070920081
22.91003913896655
22.96368394466093
23.14770221460741
23.49830506451677
24.04398986430541
24.79917232353061
25.75916952859769
26.89764900737258
28.1672366260689
29.50346141445985
30.83167610732275
32.07610196100368
33.16973967332429
34.06357531241567
34.73338985988006
35.18274631067856
35.4414605807792
35.55985690256488
35.59998957088531
35.62551769548569
35.69201871606022
35.83930758301164
36.08687558418299
36.43297323511457
36.85725156912886
37.32629601512263
37.80083582110788
38.24299610080534
38.62192830015077
38.91667503478046
39.1160481650121
39.21621474653318
39.21722750013678
39.11981938937651
38.92353919539129
38.6268770734529
38.22950390255073
37.73621547319623
37.16169268398592
36.53477673913184
35.90071402741363
35.31999161445341
34.86312446932058
34.601887506554
34.59853556981859
34.89511481015201
35.50496463378978
36.40810052299807
37.55150644105767
38.85455161533258
40.2188990768667
41.54148798461232
42.72849882776371
43.70779462835486
44.4374579671987
44.90888104427169
45.14418425816052
45.18900412273753
45.10246469040987
44.94635401355628
44.77535215438366
44.62977180567466
44.53174441015059
44.48515154834483
44.47890947500455
44.49253636358151
44.5024464162353
44.48739151416098
44.4320247508352
44.32844837177368
44.17637790878776
43.98289440002997
43.76266590670562
43.53917268704759
43.34703072238198
43.23508112078122
43.26956147199885
43.53640440349072
44.14151348058384
45.20786696870382
46.86872482182664
49.25713020671643
52.49300391415395
56.66994263457534
61.84405614605997
68.02685155506462
75.18348062983428
83.23673960945379
92.07612055271896
101.5700503140566
111.5783627854525
121.9613037118056
132.5814500299509
143.2963104515044
153.9419442760079
164.3107510173308
174.128491772279
183.0360365724767
190.5804628664721
196.2185428378916
199.3339523263659
199.267957588464
195.3617581802492
187.007090481541
173.7005451313064
155.0966558471908
131.0550098976948
101.6770926707543
67.32919408333991
28.64837722178899
-13.47102556112589
-57.9128315428464
-103.3985553973377
-148.5717860579072
-192.1046673679006
-232.8188704884984
-269.8074123666614
-302.536745247482
-330.9038755106961
-355.2269642222329
-376.1624037186444
-394.5608409088084
-411.289588182335
-427.0546892361771
-442.2543859839444
-456.8901957316088
-470.5533742245895
-482.4933475036136
-491.7617055574515
-497.4109426676235
-498.7113822015707
-495.3374907160557
-487.4760991710841
-475.8287863498527
-461.5105755792032
-445.8725319640948
-430.2884582328618
-415.9470506578606
-403.6855918995454
-393.8923199907922
-386.4928761617186
-381.0226603655636
-376.7716097243157
-372.9707006193814
-368.9751919576922
-364.3982233912233
-359.1645528935915
-353.4802135486304
-347.7364719583421
-342.3783129164452
-337.7697787478025
-334.0848713725217
-331.245716856221
-328.9202588237289
-326.5808700984752
-323.6130128086181
-319.449552359183
-313.6960049772941
-306.212643061119
-297.1333820485197
-286.8215542560302
-275.7790353520294
-264.5330471621302
-253.525730078327
-243.02829716331
-233.0957581030764
-223.5705272458366
-214.1345693622524
-204.4000923789051
-194.0183429222355
-182.7786309968443
-170.6712172068252
-157.8991672990505
-144.8397449489749
-131.96813838248
-119.7622878206841
-108.6085238915556
-98.72581574499209
-90.12258400772212
-82.59459614940559
-75.76588445589107
-69.16657208263331
-62.3320249015771
-54.90042783076174
-46.68591145471449
-37.71248277002429
-28.20546483027188
-18.54660361758338
-9.204358060790513
-0.6529018820467135
6.70651240097714
12.60923092908887
16.96541660306082
19.86565143769369
21.55234912412756
22.36356574123369
22.66356886791086
22.77722834865585
22.94162549810812
23.28138319773275
23.80788475544266
24.43844954151366
25.02948912479961
25.41682640823862
25.45603565235658
25.05566727054062
24.19700536546847
22.9365579030964
21.3920836778667
19.71774029367229
18.07610611964473
16.61365036353516
15.44337655118771
14.63570987031268
14.21698640306534
14.1740957872634
14.46359866932667
15.02360323065178
15.78662740797762
16.69165834517872
17.69381886937269
18.77044301196911
19.92275630508548
21.17275955804016
22.55556683854185
24.10834242449996
25.85773238756631
27.80799630666701
29.93197301261477
32.16672106329712
34.41517082547047
36.55438291043411
38.4500587062667
39.97571587895554
41.03337144195247
41.57123230060574
41.5938820958847
41.16224576727522
40.38336213189829
39.39235301932551
38.33025159443378
37.32168363912163
36.45616296974848
35.77612484893335
35.27381182514063
34.89780505776177
34.5682784859244
34.19788112703343
33.71319410869295
33.07127537975738
32.26748716597929
31.33367598367952
30.32833172838405
29.32180316182446
28.38014418600989
27.55110014062601
26.85521865667468
26.28408958696841
25.80642145002055
25.38103700803912
24.97381583532497
24.57373274475034
24.20277519693425
23.91633537736725
23.79374747972293
23.92137130525634
24.37211390913678
25.18567864720767
26.35359607992302
27.81234725812188
29.44661414668273
31.10304421253232
32.61295033997949
33.82001551703125
34.60696380033406
34.9147070155385
34.74943560628988
34.17658483866938
33.3038608864873
32.25749393771844
31.15661780834759
30.09060261438331
29.1034915315473
28.18846739477131
27.29364725956857
26.33844011587617
25.23707695359363
23.92342264583004
22.37037116573659
20.59887454798098
18.67503614454979
16.69691929574222
14.77470144281608
13.00860590950549
11.46912622538398
10.1835532193893
9.131710822900795
8.252262054435446
7.458938581018448
6.663404164772415
5.798891638112615
4.837939414054941
3.799413255068247
2.743502355704411
1.756624473668942
0.9300958587539749
0.3371662386501926
0.01308902275181478
-0.0575884253558597
0.05657892656541644
0.2433507542203639
0.3673399375777745
0.2979998478223534
-0.06154202447818025
-0.7523711783125677
-1.749950826085547
-2.968302133609058
-4.276401658044588
-5.522865057131072
-6.564047879611501
-7.29040899882413
-7.646267121043971
-7.639043395674827
-7.335654651597771
-6.846041106325736
-6.29710616643586
-5.803693401664105
-5.444519402332554
-5.249082560349507
-5.197693013461396
-5.233141463120545
-5.280347232500003
-5.26939627829998
-5.157121893036796
-4.942659933479964
-4.673290000082226
-4.438304962753584
-4.350885976556944
-4.52133024140202
-5.028500018718571
-5.897720528928063
-7.091292218920532
-8.513598110392062
-10.0288589759606
-11.48720518302685
-12.75370857824447
-13.73478216766397
-14.39677790833525
-14.772725673829
-14.95485718454084
-15.07308881967114
-15.26335018178328
-15.63349130305157
-16.23599406832546
-17.0544937035765
-18.00658437355994
-18.96110969290541
-19.76550012970382
-20.27747910019178
-20.39500620685272
-20.07859976463943
-19.36129637126793
-18.34333859568751
-17.17143867244112
-16.00652260102821
-14.98810183627126
-14.20514332747659
-13.68099203648651
-13.37502471314498
-13.19907645330885
-13.04382703418074
-12.80906535818915
-12.43141530125192
-11.9035779521663
-11.2804612876258
-10.66956491631224
-10.2059271833479
-10.01627002735882
-10.18147828626345
-10.70826578952755
-11.51815123716081
-12.4563120674466
-13.31758990014625
-13.88364689366828
-13.96384519491842
-13.43208826823643
-12.25245181144549
-10.48804500696658
-8.29005241188133
-5.86750290101991
-3.443307510480144
-1.207114346312296
0.7226014290292331
2.31779230852388
3.638129955479686
4.808915652897363
5.985889452359375
7.314823277869856
8.894112340052613
10.74792549094221
12.815819535617
14.96217157023007
17.00505215316404
18.75890426702365
20.08012708336224
20.90273766244035
21.25450414701248
21.25044127611237
21.06679299608019
20.90247381043099
20.93645776853366
21.28965880883996
21.99884785871023
23.00822123258779
24.18154873291398
25.3340575687912
26.27794168793466
26.87016587017144
27.04944787958363
26.85271640793704
26.40801078447134
25.90714035947245
25.56533962393029
25.57669441355397
26.074141168108
27.10178386215197
28.60526323034038
30.44311834289434
32.41820019654134
34.32291716104217
35.9870110278664
37.31497903994416
38.3037615230756
39.03786993740353
39.66523381150729
40.36070511856077
41.28550289877322
42.55080455832761
44.19264081527106
46.1633285021026
48.3419816992784
50.56291199498163
52.65579784536856
54.48699724273791
55.99035167103875
57.17953833295431
58.14031000883612
59.00647697360949
59.92649715941119
61.02831748426235
62.38960435031498
64.01925275172776
65.85419765852917
67.77305957213981
69.62473903643544
71.26570636347374
72.59603705473961
73.58392544809313
74.27232532071955
74.76728426175274
75.21238650919429
75.75609761006083
76.51913179717207
77.56815210580682
78.90067927008405
80.44422269453746
82.07038493891719
83.62173590377841
84.94559482693754
85.92596898755974
86.50505886042787
86.6894500042342
86.54122813158567
86.15814109452894
85.64857420375827
85.10702015641631
84.59476953750053
84.12923212554131
83.68380971736546
83.19851451122979
82.59925466885282
81.8209687379672
80.82787720478507
79.62475760998642
78.25643761030355
76.79671489263866
75.33063331518943
73.93490724189121
72.66085095040081
71.52311474780716
70.49624853349744
69.51980747616219
68.5113697824588
67.38520164137537
66.07244106024224
64.53757185223796
62.78683021816174
60.86690396873718
58.85527806264741
56.84540935671927
54.93034059035978
53.18792549620471
51.67003858055202
50.3972353643297
49.35942992020948
48.52223309398349
47.83746327123924
47.25508853402395
46.73321367358685
46.24345929838658
45.77096228217117
45.31011175207314
44.8581212585197
44.40858978306952
43.94673840154036
43.44737280610556
42.87600513560585
42.19305271356041
41.36053587701247
40.35005018707788
39.15007551326561
37.77043563561875
36.24241493544072
34.61443181155203
32.94446649531108
31.29108622594877
29.70491848166938
28.22205771768816
26.8603558074297
25.61898201984262
24.48115398627384
23.41952292257501
22.40322046214858
21.40506596832621
20.40722922081419
19.40406996583129
18.40179369432821
17.41546178665528
16.46440020469925
15.56715654364551
14.73702264363507
13.97888468240506
13.28785027899721
12.64980509625857
12.04378838548407
11.44576127370882
10.83294647072138
10.18765760402997
9.49968608468276
8.76685162997787
7.993924447740635
7.190499539642387
6.36849551682238
5.539869770873922
4.714992570692112
3.901951982915968
3.106895419319043
2.335352458916656
1.59427326372374
0.8942372625610494
0.2510825845976188
-0.3137108153053794
-0.7741673522234003
-1.102307672412497
-1.271473679694002
-1.25984151289218
-1.053487804379766
-0.6484754138839022
-0.05158890948276881
0.720458876243406
1.643335023497899
2.68865580525261
3.828230225395022
5.038073660475312
6.301218133570298
7.608631421477102
8.958069019792
10.35119862406614
11.78969320697779
13.2711303443599
14.78551123473564
16.3131086928446
17.82419029753503
19.28088431027118
20.64101138052769
21.8631477333731
22.91172740966727
23.76091023078654
24.39634267026231
24.81463616983271
25.02106386226798
25.02638336538757
24.84373691459413
24.4863442873439
23.96638922984366
23.29525867883916
22.4851057791519
21.5514342589096
20.51598648070898
19.4088520835726
18.26873221402434
17.14081533448966
16.07248465592016
15.10770394274882
14.28122396618526
13.61373165791106
13.10883298789631
12.75243858805634
12.51479114986552
12.35503070526183
12.22775877544325
12.09051829975867
11.9106684149474
11.67015973946021
11.36731710190047
11.01559207730054
10.63992704024367
10.27169975471346
9.943263771195703
9.68299389786603
9.511575808301538
9.440082129527962
9.470128018252986
9.595999321149263
9.808056426748339
10.09618011543409
10.45197913014646
10.86906399224961
11.34152993005629
11.86139636006454
12.41595862216518
12.98592965474594
13.54501857060244
14.06129533404347
14.50039944129537
14.83037489704769
15.02753618755001
15.08222265696553
15.00286163278521
14.81692570126897
14.56824436552568
14.31122179778226
14.10324678368545
13.99680092083722
14.03264668070178
14.23518811766482
14.61072609816289
15.14891403939541
15.82725001971303
16.61783035238961
17.49484200843242
18.44074680239287
19.44934314956273
20.52495165975726
21.67826404758187
22.92025235520628
24.25577489881658
25.6783535345141
27.16727060697109
28.68772927947537
30.19433865757189
31.63760160156012
32.97234364820109
34.16618763878576
35.20567066314772
36.09798421838782
36.86764138151386
37.54896617157105
38.17639573309012
38.77491804345889
39.35271490180842
39.89751833881748
40.37750342978605
40.74681678606263
40.95507150023439
40.95925359742174
40.73555120319483
40.28809288397809
39.6520587044709
38.89014654102149
38.08323082908919
37.31741461830912
36.67021571263528
36.19849614978407
35.9302296614163
35.86148906356394
35.95919372054379
36.16920199009262
36.42825765619878
36.67722214566912
36.87240876061394
36.99225829130582
37.03808221634803
37.02942409492687
36.99590144431036
36.96786519188488
36.96805447998664
37.00594993825643
37.07590212631287
37.15938483276344
37.23092579250606
37.26639547278066
37.25147253339292
37.18766486642045
37.09377832141724
37.00218833037165
36.95096244397419
36.97399499150657
37.09157823383318
37.30348244364366
37.58598072628891
37.89352394364619
38.16502661706534
38.33397492535768
38.34075469794501
38.1447774395706
37.73356262855464
37.12643922405188
36.37197276444073
35.53993785240055
34.70986579579896
33.95861327236623
33.34920883845755
32.9227443534315
32.69446607782028
32.65453937509461
32.7732046707459
33.00918154159006
33.31931017093411
33.66694069678318
34.02695932080598
34.38655908243982
34.74229248755869
35.09489186340774
35.44359056865539
35.78143437565669
36.09263298948665
36.35253791956297
36.53038323000943
36.59443731476245
36.5186071976586
36.28888190482229
35.90766662218154
35.39447221773631
34.78255792859871
34.1124028839122
33.42369948949086
32.74773346898931
32.10170324450277
31.48597440294016
30.88467061529045
30.26950782653463
29.60636462747702
28.86359283117223
28.02047206277258
27.0738166911634
26.04100452981308
24.95866939611001
23.87749953226373
22.85444933810323
21.94400916393111
21.19012255190995
20.62007302701768
20.24127691372771
20.04146351668088
19.99221441261576
20.05521941319584
20.18989982569819
20.36053337127512
20.54111225930061
20.71696755432594
20.88328226116314
21.04144932647072
21.19457113546349
21.34334748594857
21.48335734012144
21.60440841131876
21.69222997252971
21.73232521941458
21.71525905364735
21.64205858183292
21.52799678333313
21.4032023056358
21.30939343444073
21.29319960871366
21.3974776738083
21.65246282527852
22.06854825452934
22.63212797685798
23.30539428409264
24.03034970304783
24.73664541076682
25.3521789885197
25.81466077968475
26.08182119463056
26.13799916078628
25.99568949952364
25.69190984981386
25.28043195362145
24.82164650821606
24.37205551410293
23.97524473123984
23.65579780228083
23.4170483899257
23.24289932503426
23.10319162115927
22.96131010621314
22.78209948472848
22.53811815069436
22.21291479759648
21.8010639645094
21.30564071925684
20.73433163897051
20.09546198405734
19.39503535125605
18.63556273084973
17.81704908676823
16.94003559677705
16.01006856995777
15.04240377745639
14.06536603574511
13.12090947632712
12.26166187801075
11.54476211929692
11.02364869166147
10.73938061766948
10.71310617678424
10.94108269983275
11.39326610534134
12.01594898152466
12.73827731212125
13.48176500380445
14.17120898807876
14.74491189132052
15.16219582876545
15.40693889041015
15.48693751870519
15.42979745896987
15.27653884766739
15.07424101255825
14.86900918269879
14.70036775676956
14.59785913306009
14.58017702596099
14.65660659636892
14.82991314644137
15.0993460970763
15.46247339952079
15.91522142443525
16.45037963280376
17.0554337315509
17.71073457918582
18.38884647974137
19.05563082440651
19.67326155152881
20.20497267732796
20.62097710809677
20.90465321649249
21.05771771733858
21.10287188468874
21.08269487563758
21.05445769776103
21.08164260955861
21.22374533423836
21.52620039535641
22.01213270993045
22.67729262842595
23.48906090341604
24.38984547512598
25.30456377214385
26.1512042621983
26.85272421621409
27.34803659726862
27.5999687477175
27.59892905372934
27.36218436586773
26.92958080966353
26.3569874493486
25.70880923973396
25.05079433637587
24.44413852284442
23.94158030581225
23.58578803760522
23.4098298069044
23.43889166676435
23.69191902597298
24.18190635004024
24.91426464741265
25.88366704013883
27.0704772827714
28.43807283753337
29.93219272545532
31.48305239224009
33.01046691292562
34.43168613983172
35.67114893973535
36.67088086649457
37.39974666693887
37.85944550384703
38.0854270758719
38.14195918312338
38.11200752137476
38.08378975122102
38.13646772290205
38.32744650456938
38.6833388256602
39.19598781556117
39.82413923310221
40.50050886292303
41.14310440075712
41.66874549823681
42.00605101048016
42.1051904698656
41.94261021887787
41.52037805986048
40.86111390970305
40.00026942635598
38.97776061026148
37.83081101995511
36.5894516711822
35.27553324052454
33.9054403538384
32.49597337145696
31.07204990828766
29.67418656125047
28.36360989605502
27.22355714987563
26.35655801805548
25.87862347255411
25.91186587865316
26.57711506228468
27.98779574901498
30.24585018350322
33.43988570160406
37.64507327226513
42.92367515211131
49.32449730037475
56.87931637091847
65.59484961602958
75.44022089648618
86.3316368951808
98.1173877073159
110.5668516673763
123.366871221504
136.1278879411608
148.4008257003054
159.7040666261474
169.5580601928894
177.5232078927696
183.2349990380118
186.429760812424
186.9557338217725
184.7674837870568
179.9056006668013
172.4665382281436
162.5684544405016
150.3182387582948
135.7833995317749
118.971098440749
99.81587848829199
78.17742628566488
53.84991034509168
26.585131935248
-3.867820513460289
-37.70532901792137
-74.9978244109901
-115.6131819683046
-159.1478116298762
-204.8793585477965
-251.7538905438889
-298.4179534836482
-343.3013098987763
-384.7491211667493
-421.1935591933772
-451.3447785049992
-474.3701038781532
-490.0223870187192
-498.6821080720428
-501.2967110412567
-499.2273025842952
-494.0343722351616
-487.2436897276638
-480.1328392030352
-473.5725830957209
-467.9475988700598
-463.1686669903661
-458.7741691133448
-454.1030750524225
-448.5043067783275
-441.5332523110086
-433.085577152382
-423.4366524572687
-413.1839553693104
-403.1152122681665
-394.0383176580354
-386.6111535613932
-381.2050316527719
-377.8273120185481
-376.1177677768476
-375.4205017095483
-374.9188622291241
-373.8048710427386
-371.4418987426275
-367.4788296108194
-361.8894889336196
-354.9350311602465
-347.0672644309884
-338.801187529306
-330.5865248094733
-322.7044149485354
-315.2086958545957
-307.922329578439
-300.4894015224824
-292.4719435673737
-283.4688203000581
-273.2252113970437
-261.7025370823304
-249.0916046607266
-235.7696857621303
-222.216537232326
-208.9112189085214
-196.2322767880074
-184.3810660232436
-173.3429033544345
-162.8939044682653
-152.6535147968607
-142.1738180573742
-131.0468804195658
-119.0043182251286
-105.9844034765294
-92.15211084065459
-77.87112613936897
-63.63772152692802
-49.99207183572523
-37.42410384300686
-26.29019369060226
-16.75474728097446
-8.767051430528786
-2.078785029591154
3.699530364320775
9.01427301177332
14.27610635965613
19.78041447132425
25.65652400924851
31.85215747183439
38.15137251718602
44.21911183870089
49.66294157622663
54.10144635142753
57.22841160539127
58.86226914706432
58.97180512821355
57.67313138374471
55.19997120373827
51.85679740199783
47.967912964329
43.83367906116678
39.70026715654826
35.74471216832367
32.07403153588504
28.7355920847464
25.73512233229423
23.05827191824935
20.69126174932415
18.63627936740596
16.91852010378674
15.58429745818973
14.69229058089829
14.3012406518083
14.45704530011577
15.18125020512324
16.46221867916485
18.24987514199218
20.45471853222008
22.95163343681291
25.58868871591821
28.20051094595078
30.62508577219347
32.72208925815791
34.39005436509179
35.57905245624101
36.29576147394251
36.59922215344592
36.58780137530469
36.37989559738795
36.09203625762602
35.81829599722782
35.61454376448946
35.49031267086426
35.40986601930694
35.30258786098966
35.08111727770969
34.66369926110795
33.99562136749385
33.06445681403473
31.90560839625626
30.59747501169575
29.24806821462798
27.97636012031768
26.8921563420332
26.07821719425012
25.57783139287495
25.3901046135525
25.47395915169573
25.76020869450774
26.16899899178083
26.62801165712903
27.08638884832844
27.52093353790468
27.93386954849172
28.34383709589132
28.77309818988564
29.23428634389787
29.71984818128498
30.19672814211934
30.60788494083778
30.88102521551993
30.9434401620782
30.73991865567877
30.24900246438148
29.49265226055989
28.53628088272029
27.47909532822789
26.43720834697064
25.52326263807621
24.82657025066133
24.39745903902433
24.23878151442826
24.30639709470405
24.51900668120673
24.7759778784547
24.9796819754013
25.0570194098338
24.97456396223223
24.74368868270944
24.41514426406108
24.06523867571041
23.77720823787683
23.6217887048642
23.64084871785674
23.83734493489706
24.17376480230412
24.5797625911568
24.96788295302697
25.25404496813597
25.37748599202974
25.31452168695277
25.08241520644778
24.73285871719217
24.33737266103783
23.9684347622271
23.68055256678764
23.49526443774118
23.39332207379283
23.31608073330788
23.1765721207359
22.87885064475525
22.34184905296526
21.52182430930635
20.42705361220337
19.12054371997597
17.71011971872395
16.32852233804486
15.10801776269828
14.15464259815578
13.52705914907495
13.22420805240096
13.18450871676709
13.2974775697622
13.4263486290952
13.43746804649451
13.22963561539694
12.75589142805396
12.032411490508
11.1330957472388
10.1720838515008
9.278634014370084
8.569669613211957
8.125372311654354
7.97259732847407
8.07954640450565
8.363236876404839
8.708878909365295
8.997184141286715
9.13269573570911
9.06533295483829
8.799500388390928
8.389174369554782
7.921200881123324
7.491357235276538
7.17864157481039
7.023303159848121
7.013444963939074
7.083569633046745
7.12639233733054
7.016631683916737
6.642173676026989
5.934891663233627
4.892559263836739
3.585807302953786
2.148648967310111
0.7553440907580526
-0.4110785642580161
-1.192318867131552
-1.483925177179564
-1.254376411586134
-0.5500981558206829
0.5153117131259743
1.786433506977421
3.100991010844059
4.32590357248666
5.384818012404486
6.270178981685522
7.037885618051346
7.787247320353865
8.631770273537986
9.66743448712366
10.94519482128715
12.45358102776846
14.11547817872032
15.80075627680487
17.35337145823675
18.62758925667252
19.52415189442655
20.01611436038128
20.15711376463065
20.07041903423118
19.92226927180907
19.88603518185286
20.10481057662331
20.65994890170377
21.55202160235491
22.69863692663527
23.95074515742871
25.12546819455577
26.048979089989
26.59882265813419
26.73411129820404
26.50564462620347
26.04430715826268
25.5318070695793
25.1610943440451
25.09488532124452
25.4305153511314
26.17812783753005
27.25698092486933
28.511660126962
29.74617995829712
30.76915392571746
31.43882850739643
31.69581523282088
31.57523297822984
31.19658688671767
30.73555646123903
30.38510884091944
30.31436961335112
30.63342904248687
31.37101630057087
32.46975141468072
33.80074634868853
35.19557260231836
36.48881825048441
37.56011833166158
38.3637505856904
38.9379894051168
39.39311795849011
39.88272385306485
40.56589368950816
41.56866869295786
42.9526458567759
44.69721544289789
46.69962908558594
48.79411273986891
50.78745511057524
52.50375931843433
53.82692299007267
54.72896244181658
55.27671164536279
55.61630583696589
55.94062475514878
56.4478182451023
57.29967042068823
58.58791095724779
60.31502022612212
62.39364578626909
64.66564841547437
66.93792426683461
69.02744695247246
70.80404792367783
72.21921682475615
73.31368151357475
74.20331706353733
75.04857035782601
76.01542675864658
77.23645825257744
78.7797058882306
80.63150444730235
82.69695031077612
84.81870793628563
86.811153040078
88.50249557302716
89.77407660487613
90.58610854131649
90.98350189007013
91.08177417551983
91.03819504802395
91.01580935771076
91.1482268318631
91.5120623764657
92.1121948963772
92.88275565551298
93.70405875549254
94.4324338695512
94.93623203689084
95.12857555388945
94.9878623449485
94.56105063629695
93.95021974091793
93.28717244792475
92.70277915573571
92.29777549435175
92.12065516613164
92.15667024149742
92.32999327799322
92.51889420930412
92.58120753397861
92.38452150521266
91.83357366440394
90.88790036769991
89.56603560027057
87.93675014654916
86.10099075816207
84.16956178716359
82.24152006256693
80.38734904816653
78.63968992492124
76.99297069525008
75.41173009567139
73.84565151200809
72.24742244387758
70.58837841107545
68.86752834366764
67.11194785389065
65.36936513694539
63.69573528369143
62.14130368656559
60.73840553228769
59.49346744170685
58.38466736112527
57.36565042909184
56.37464836520526
55.3472368904588
54.22987241136814
52.99081643323992
51.62569331513828
50.1566141653695
48.62566808896717
47.08483352253604
45.58478783904268
44.16488561304288
42.84601384634387
41.62735488888899
40.48742790718264
39.38912035599844
38.28767915750833
37.13988859253146
35.91228516740191
34.58660680169397
33.16164222716597
31.65171520763698
30.08276532699712
28.48727625770094
26.8992429665128
25.35006758162148
23.86586306891314
22.4662792475765
21.16470653818287
19.9694779594878
18.88542713036675
17.9150203834935
17.05847821257305
16.31279816929104
15.67008757276419
15.11586237702288
14.62795879525161
14.17654372840692
13.72547222921573
13.23496889993511
12.66536135687271
11.98140431549782
11.15658407828885
10.17667671567093
9.041843096564238
7.766808957877387
6.379156931495929
4.916200768128149
3.421104281237313
1.938860566820997
0.5126067332740976
-0.8193867272889853
-2.025832059826069
-3.083539567254928
-3.977539459345
-4.700345069102112
-5.250640611062207
-5.631782834540825
-5.850451230449657
-5.915555614725189
-5.837294820184296
-5.626235082253208
-5.29240391449011
-4.844501224142153
-4.28932812891243
-3.631478840674829
-2.873305443794993
-2.015163531833508
-1.055973197777398
0.005807507045686444
1.170650451014947
2.435817040389574
3.792848199990615
5.225226532008009
6.706842420142901
8.20174717152213
9.665433821818928
11.04765193298135
12.29653794201675
13.36363189850544
14.20919419098069
14.80713049817131
15.14874271718464
15.24450699191997
15.12330873755826
14.82909768730021
14.41554855408248
13.93972335700996
13.45582593828557
13.01001243427907
12.63697239629333
12.35866055097692
12.18519333301767
12.11760167719791
12.15185228012515
12.28326634069212
12.51025680533884
12.83639974706982
13.27035638785336
13.82384579854646
14.50837971405501
15.33165719920063
16.2944719395566
17.38883871628899
18.59782494134998
19.89726230656397
21.25913695062101
22.65604316166224
24.06566430350253
25.47397417886438
26.87601920268534
28.27385167459628
29.67213954873843
31.07271131226786
32.46955292842928
33.84560306271169
35.17226136220594
36.41197646725887
37.52371354241637
38.47056220693131
39.22821464646458
39.79253693811329
40.18420662175431
40.44875969619531
40.65146691579118
40.86783711813298
41.17163539231069
41.62277989943473
42.25738423143156
43.08174024780475
44.07134192249202
45.17521975622184
46.32495298655704
47.44680136146094
48.47455871005663
49.36029682721374
50.08055226834178
50.63677042066555
51.05045760313395
51.35479531996106
51.58504141286771
51.76994065019581
51.92587601919695
52.05483159506093
52.14649614403525
52.18403821992299
52.15223149046297
52.04579680630626
51.87540529778521
51.66920205038448
51.46901158762262
51.32203681766008
51.27015001551543
51.33941052832225
51.5322674919481
51.82425638121245
52.16610338598537
52.49118242324082
52.72732705947237
52.81108040026873
52.70161749995928
52.39114961626019
51.90911233569203
51.31891965384387
50.70796303039126
50.17307900347809
49.8044690263495
49.67106150561185
49.80981098337647
50.22063907668436
50.86775000784852
51.68698062139249
52.59771432622705
53.51681241576398
54.37138119644815
55.1074953125778
55.6932955745165
56.11660753043022
56.37864547936356
56.48606510244273
56.44362380259057
56.24924725143897
55.89262231521428
55.35766832319161
54.62841513133544
53.69693554084722
52.57115267412357
51.27995313996372
49.87353215714792
48.4182729509592
46.98712095387476
45.64763386360244
44.45033388855477
43.4197585612218
42.54997083755867
41.8054523697668
41.12738388693338
40.44439914564327
39.68602839650954
38.79630938752526
37.74473601426546
36.53220512650844
35.19089293037806
33.77850901375776
32.36851889770656
31.03843823706459
29.85830743760267
28.88118227050022
28.13703249505242
27.63083137209085
27.34486693351153
27.24448103582865
27.28568159340537
27.42265859766424
27.61346854035979
27.82300643456032
28.02341278353026
28.1927722945559
28.31318334387953
28.36915998130866
28.34708044828142
28.23609221669444
28.03049491516868
27.73315356414821
27.35901256673296
26.93740514239316
26.51180518656268
26.13617393932384
25.86803927186227
25.75946751191062
25.84768737706193
26.14717822674069
26.64471554021724
27.29837611675426
28.0409173593506
28.78728237895491
29.44531064648345
29.92812111486329
30.16615761774181
30.11674179435224
29.76941053431474
29.1462948580947
28.29791840677706
27.29559976834726
26.22197871412884
25.16118466428162
24.19000000226204
23.37110655285045
22.74913937196321
22.34981085398581
22.18181280952085
22.24060371397745
22.51276118287424
22.97963356686112
23.61961517846463
24.40915217675903
25.32311934418946
26.33532937817771
27.41978420111649
28.55304126261116
29.71781430070317
30.90764826374359
32.13219916317458
33.4223013873458
34.83363966272345
36.44765698400072
38.36863520191113
40.7167607896188
43.61809435894742
47.1931973477613
51.54644535264918
56.7578014495107
62.87822168049577
69.929092192346
77.90524459017789
86.78018733008221
96.51126319371457
107.0417150643216
118.2966306644229
130.1709708373544
142.5102846660884
155.0873764213805
167.5800072892884
179.5551313189036
190.4643089330974
199.653320384143
206.3871535490774
209.8897187345098
209.3957693901726
204.2105855991819
193.7714322696774
177.704203639775
155.8692399107649
128.3918227873147
95.67475392937247
58.3919920339436
17.46306132351383
-25.99216267671508
-70.71888503134613
-115.4126679193449
-158.8213961650291
-199.8566206324763
-237.7017619244849
-271.8986335223399
-302.3898261014115
-329.4983039483632
-353.8392853237581
-376.1774888925559
-397.2563890128907
-417.6311238446212
-437.5349812605004
-456.8040224036745
-474.8762723968853
-490.8710332831478
-503.7411427408829
-512.4767351974276
-516.3234061182152
-514.9657237767149
-508.6289776386985
-498.0725772012624
-484.4788896106325
-469.2666703459824
-453.8704413789364
-439.5279078588056
-427.1118518939526
-417.0336058244289
-409.2330628931776
-403.2562868779399
-398.4061852708992
-393.9341919295916
-389.2265380572495
-383.9377793224386
-378.0413996055277
-371.794213255224
-365.6342712422676
-360.0437217213936
-355.4099073196912
-351.9140784220189
-349.4697633953324
-347.7229923648983
-346.1152573615302
-343.9974174176966
-340.7689098809591
-336.0062935543897
-329.5462844371644
-321.5032562105374
-312.2220424331605
-302.1835186028817
-291.888251752559
-281.7440825261597
-271.9799691430424
-262.6022889298229
-253.4017889040447
-244.0104021128955
-233.9971902613167
-222.9819628459331
-210.7376923527357
-197.2547263663866
-182.7518320356138
-167.6350199232434
-152.4175279152703
-137.620358222901
-123.6736561395635
-110.8372191695884
-99.15451755255808
-88.44917726199871
-78.3663049723437
-68.45279669509532
-58.26082653558364
-47.45079423761974
-35.86966157071524
-23.58875692400646
-10.89687546889377
1.745673140976761
13.78069899723898
24.63970348736734
33.83114433396695
41.01380877144052
46.04440809984493
48.99055563968832
50.10593644280546
49.77331135136215
48.42991037119926
46.49350893881303
44.30426912388436
42.09043663390522
39.95931303397323
37.91044590278846
35.86554491965772
33.70837448134383
31.32712408865896
28.65137419749899
25.67628566117379
22.46915847605187
19.15838409531839
15.91004877937451
12.8999845925256
10.28805663016716
8.198706386499289
6.70921236391162
5.845494927032968
5.584497305084676
5.861904835758456
6.583833028134626
7.6408662939549
8.922551233700188
10.330426131428
11.78796671188779
13.24621868178661
14.68429286338107
16.10456382118189
17.52341768849058
18.95936232397152
20.42082670489147
21.89600123220785
23.34678638868512
24.70838930569759
25.89532840948903
26.81362213854413
27.37770033743315
27.52903131159442
27.25211046530068
26.58335692534923
25.61012418301151
24.45971310999723
23.28067987681758
22.2201033517681
21.40089256038915
20.90303079770781
20.75200373271689
20.9165663028327
21.31657586449258
21.83984190650586
22.3647650657931
22.78358228813712
23.02057270696977
23.04122847024642
22.851300824041
22.48729465811888
22.00154171447149
21.44552234413928
20.85504720582411
20.24041800341262
19.583763541904
18.84447476182277
17.97199870657965
16.92312520111014
15.67895699662205
14.25632463575285
12.7101211789295
11.12597607938972
9.605315866369457
8.246333207111732
7.124843927725679
6.278868480172991
5.700142852072481
5.334641742582209
5.092731857088398
4.867770171383145
4.559723786568974
4.098342550572164
3.459943731222196
2.673656601870295
1.816104226241299
0.9963631907533058
0.3347376494836986
-0.06045517874013495
-0.1137963461463346
0.2025557939370541
0.863390187499986
1.795607803946035
2.893392555654295
4.040198138201677
5.132059911511019
6.096118215473009
6.899968804434991
7.550566307846498
8.084242500104537
8.551048415688465
8.997224138420984
9.449615564981585
9.905442550714637
10.32991255067118
10.66280367968218
10.83326354073232
10.77963775379529
10.46891705814138
9.909898451976682
9.15609779925691
8.297764715018783
7.445278451361633
6.70782144483527
6.171717241231814
5.882676786099491
5.835568916345184
5.974180335674847
6.201839462841941
6.401695536682256
6.462785667756407
6.305601334471087
5.900353405366171
5.273307790325505
4.500250855473888
3.689415044763322
2.958052869909022
2.407508013025425
2.101618474126696
2.052714766054094
2.218287916074226
2.509698034118775
2.812004735482641
3.010999074821036
3.020697700835997
2.803810330251217
2.379918730588405
1.820055014677832
1.229933687678216
0.7261660563248273
0.410567840776908
0.3477115939675763
0.5503078461083251
0.9757651526053313
1.535474037609563
2.115873786211444
2.607034677648082
2.931334955789708
3.063976783906986
3.039612391027622
2.943836642770306
2.892356155407674
3.002982743309268
3.366427293008529
4.021823519981721
4.942166099538115
6.033352267017724
7.148374342704686
8.11530349875769
8.773876075760342
9.011905619322732
8.791808680549089
8.160415415612084
7.24036573115662
6.206085431670029
5.250117963496848
4.546644984525867
4.219076337165998
4.317861223085314
4.813109618730715
5.604284942900463
6.545972935069444
7.484395826999556
8.295260981263933
8.91241201580484
9.33986522603396
9.645379911866005
9.938736315773022
10.34078014487347
10.95029827242201
11.81572019270337
12.91775328764885
14.16731800217194
15.42065295558035
16.5100241299454
17.28391509303931
17.64636105472148
17.58415766311748
17.17435265699893
16.57068020842727
15.97312246218738
15.58786935549024
15.58593254417296
16.06843409705177
17.04539563094991
18.43269113483092
20.06890590098219
21.75004207676072
23.27514288695138
24.49151054150529
25.32735085988959
25.80371780482948
26.02430621552961
26.14742595036361
26.34762540917016
26.77534627762223
27.52267672591601
28.602056703018
29.94267549149935
31.40642205021749
32.82138002077043
34.02582075920427
34.91112903705013
35.45133815129945
35.711270850882
35.83226302550901
36.0003985845312
36.40530366624139
37.19832204763615
38.45838163364196
40.17242368009411
42.23490766621178
44.46777975972014
46.65823626174468
48.60653079688687
50.17171189057468
51.3027293070034
52.046992055208
52.53566493211017
52.95103015918308
53.48431820109558
54.29302957244302
55.46606064068617
57.00338382077926
58.81465185716083
60.73797359006245
62.57606095740685
64.14200230118215
65.30288920818964
66.00942470749541
66.3043484823839
66.30938695543703
66.19593733486585
66.14730046023983
66.32059338840206
66.81560433784054
67.65631053933807
68.78866530392402
70.09559111715048
71.42662461243985
72.63539545980237
73.61480921851432
74.32007972999132
74.77414023458535
75.05589455783839
75.27619608013264
75.5482615970492
75.95911742622243
76.54765365330704
77.29345422777662
78.11886883007813
78.90465389233646
79.5166123672775
79.83718336288229
79.79347860885083
79.3739317192808
78.62966148316367
77.66156949115056
76.5976713007749
75.56645973099953
74.6718145034605
73.9739223806745
73.479359598708
73.14207755252774
72.87537763583192
72.57273535663077
72.132697770827
71.48132488950583
70.58632097484728
69.46005717295468
68.15231586372026
66.73603929018928
65.29019484783986
63.88353727211685
62.56214816176941
61.34261642253441
60.21180985787709
59.13324087131439
58.05869567609857
56.9421416508177
55.75186965602027
54.47739190239721
53.12966900894047
51.73552830131416
50.32857085721021
48.93924970963738
47.58644874526459
46.27216184053338
44.98009719030012
43.67842127089499
42.32630733832203
40.88317901430019
39.31857599975498
37.62002147516679
35.7967561303538
33.87857708420951
31.91048221734192
29.94472951769197
28.03217520858448
26.21453317514747
24.51872317665535
22.95397608148205
21.51197077003505
20.16990378372825
18.89587577075207
17.65537580001459
16.41731145922495
15.15828545392706
13.86454501212717
12.53178535938837
11.16344657879347
9.768269426784808
8.357758787939552
6.943962892149357
5.53777838705509
4.147933448341718
2.780788378024661
1.440951943970931
0.1324207800446271
-1.140297151905026
-2.37159485907447
-3.554947212161704
-4.683753326534668
-5.7525290580954
-6.758090413586178
-7.700417871588278
-8.582991717076785
-9.412499543065023
-10.19790595181849
-10.94894737671428
-11.67421273170046
-12.37911463666299
-13.06418423466637
-13.72410778562416
-14.34771632065196
-14.91886108259969
-15.41792183135503
-15.8236421395851
-16.11499750850426
-16.27283219216797
-16.28106709701578
-16.12739506665842
-15.80349943996762
-15.30492322565282
-14.63080445821179
-13.78378066300462
-12.77035373061464
-11.60181152273642
-10.2955115812926
-8.87613250017506
-7.376470667444777
-5.837437221877886
-4.307013892778771
-2.838054836764691
-1.484996088485481
-0.299736364778616
0.6728479095801047
1.399105801533927
1.859771893520741
2.051419456404335
1.985931029800581
1.688239218855301
1.192984629452708
0.5408542770182405
-0.2247428760118942
-1.060222940515305
-1.923406917574396
-2.774178197639175
-3.574449791683603
-4.287820992629612
-4.879421568428815
-5.31645683035108
-5.569749717235851
-5.616137586011295
-5.441162559893009
-5.041345783339874
-4.425468600265898
-3.614522902835284
-2.640209435231392
-1.542061292011407
-0.3634930816019909
0.8526843218060947
2.068537052894101
3.254222808569057
4.389425421124441
5.462730300131218
6.469296042921474
7.407672449675833
8.276735532203837
9.073511803542237
9.792334061445898
10.42542951160857
10.9647494630008
11.40464639402707
11.74486210017589
11.99314122378145
12.16665453717563
12.29149299516012
12.39994535732102
12.52597876546207
12.6999249124004
12.94356093984933
13.26660679619958
13.66532868891912
14.12356108535088
14.61607591892734
15.1138522844336
15.59043037097614
16.02817584512361
16.42304287943331
16.78654092153984
17.1442439703289
17.53114952339531
17.98503924475511
18.53937531945799
19.21718523013992
20.02703602556839
20.96175513520843
22.00010757697393
23.11118860199928
24.26079001688861
25.41845265440064
26.56349120915758
27.68828730803427
28.79780583549828
29.90540450913851
31.02606433953133
32.16876751421653
33.32982692053779
34.48866066532246
35.60695951399788
36.63155969835182
37.50072023866263
38.15292472724865
38.5367293664888
38.61965233296904
38.39399230576198
37.87809109469296
37.11277443855744
36.15396521935856
35.06328014125229
33.89865858367164
32.706838368912
31.51896393999411
30.34995916494902
29.20163561952328
28.06885234333161
26.94735986201006
25.84135400564993
24.76858393114818
23.76143038414088
22.86357166514705
22.12312750449476
21.58399558103703
21.27733025961744
21.21491250188627
21.38571947277294
21.7564219716735
22.27585820897473
22.88280193938583
23.51561803197125
24.12179901000664
24.66518302307576
25.12915574613862
25.51526919511247
25.83798623001397
26.11715657380267
26.37013600894238
26.60528184557523
26.81811133710807
26.99084597880212
27.09544116907965
27.09954111677555
26.97414321499855
26.70122091034525
26.27937707221434
25.7260105529134
25.0754342167847
24.37350419862967
23.67015518485941
23.01155761594824
22.43347741500869
21.95701701991102
21.58739654366
21.31585908542672
21.12419222356602
20.99080388981718
20.89687027794891
20.83095332419474
20.79084034443675
20.78217207499623
20.81439285754254
20.89527307869251
21.02549990336884
21.19466161809148
21.37954937052491
21.54521706079962
21.64874125659254
21.6451305426841
21.49437021001762
21.16821985753422
20.6552577823841
19.96296044583379
19.11633120228557
18.15349379296551
17.11936646665241
16.05880923410792
15.0105302493456
14.00272233497521
13.05100803075727
12.15884290229287
11.32007922326876
10.52297139587603
9.754595775179444
9.004583609997807
8.267329423049498
7.542387221690433
6.833357652265014
6.145935515264834
5.485845175990709
4.857241042508541
4.26193337332191
3.699591267727553
3.168877050155573
2.669263109538633
2.203079577830074
1.777183678659789
1.403627140904217
1.09892753235708
0.8819847634999978
0.7711098743526794
0.7808425166383546
0.9192047592875325
1.185884715342332
1.571660346084721
2.059187661270783
2.625080337843588
3.24299340228589
3.887197584505076
4.535930155648493
5.1737373803875
5.792212934136398
6.38898451104678
6.965307676331083
7.522955725464124
8.061166514816058
8.57429798610688
9.050660482849098
9.47278708448855
9.819170368342226
10.0672264902412
10.19696513027534
10.1946073387345
10.05531191798052
9.78435570644607
9.396549067776803
8.914163574430539
8.363981580746541
7.774163709625904
7.17152963250454
6.579658742059755
6.01800873184356
5.502051869710815
5.044248808518555
4.655515836904922
4.346700287535975
4.129514063650855
4.016478316542801
4.019726767308397
4.148884881669604
4.408521268108002
4.795775247164012
5.298720357738929
5.895879560569101
6.557104172916634
7.245797141721136
7.922234189888687
8.54753444010823
9.087666642360105
9.516791250331414
9.819318995687208
9.990353939633088
10.03459168546946
9.964094964289572
9.795554609492944
9.547650755893862
9.239008635472587
8.887056287544832
8.507877174433142
8.1169321635301
7.730320935561179
7.366082041447593
7.044941905561811
6.790005339873374
6.625179765848765
6.572544877998954
6.649226228343785
6.864477300003034
7.217632606434301
7.697435893600299
8.28300527116097
8.946388685718313
9.656351311622505
10.38278589490234
11.10095779167792
11.7947080456642
12.45783877422963
13.09327786511015
13.71018394539256
14.31968540805266
14.93025380156652
15.54374028814329
16.15291370765346
16.74101349763972
17.28344538665383
17.75136592432257
18.11655031677064
18.35661918326501
18.45947758722946
18.42585246049008
18.2692222097562
18.01312292015364
17.68650211832126
17.31820849531565
16.93179057505193
16.5416206474514
16.15105157113108
15.75290161016655
15.33211133707958
14.86999619409215
14.34916506410261
13.75795497811121
13.0932923491552
12.36133356526397
11.57593093010967
10.75558661893913
9.919849063191307
9.086081003024324
8.267323060566044
7.471667816238279
6.703186641580719
5.964099083578356
5.257608690321452
4.590647026833851
3.975698983358715
3.431041471021303
2.979157339422875
2.643619861409228
2.445122776066976
2.397445483641466
2.504079199459909
2.756112488664405
3.131792210568779
3.597907206622846
4.112823788864191
4.630707535404357
5.106240316363715
5.499040837349761
5.777104840046497
5.918893652126157
5.91406335964581
5.763072396369822
5.47599529353201
5.070867767121509
4.571841722006439
4.00734809922012
3.408378278276159
2.806941721102695
2.23472190698508
1.721877994739471
1.295849368150046
0.9800273224752838
0.7923065937162084
0.7437110028091025
0.837371358081086
1.068107111892301
1.422794884564574
1.881627213298604
2.420246908067964
3.012586934568104
3.634105340822123
4.265002404126485
4.892916351386988
5.514542179579213
6.13571561190283
6.769800410791913
7.434602983672508
8.148347129328116
8.925390711370486
9.772376939160234
10.68544649386737
11.64901620965586
12.63642656437644
13.61245664570319
14.5373441019374
15.37161174971806
16.08079373399367
16.63917170818537
17.03189989453078
17.25532172525693
17.3157038267113
17.22690546929003
17.00761044046449
16.67870613981372
16.26126901377376
15.77544956211858
15.24035763162952
14.67482752796332
14.09869513548758
13.53400431416971
13.00549830087616
12.53992699653228
12.16407024142557
11.9017977125985
11.77080147132566
11.77975504647901
11.92656994674831
12.19818826085933
12.57204772365129
13.01906687580848
13.50774693918648
14.00873719569938
14.49898692048466
14.96455077175273
15.4013487059935
15.8136682178358
16.2107578517945
16.60229800372005
16.99373724857605
17.38245373724681
17.75550342587637
18.08941771128132
18.35216889574536
18.50705393288575
18.51785971541834
18.35434505649023
17.99696938885056
17.44001813696021
16.69273634227818
15.77857664096514
14.73301686954307
13.6005533095953
12.43147177634552
11.27889376482558
10.19642461574651
9.23653386889058
8.449588864315665
7.883225231335922
7.581524263620338
7.583436665462914
7.920155478883574
8.611602366256797
9.662616257202577
11.05965677553283
12.76885339080636
14.73609518372502
16.88957012106107
19.14475550567253
21.4114378818702
23.60196787005333
25.63961091642727
27.46558539170782
29.04339016442634
30.35949486302688
31.42031571878393
32.24628887604027
32.86443377916002
33.300952769491
33.57523606266188
33.69626792908866
33.66194891163317
33.46132619516429
33.07919544905315
32.50202791220022
31.72380509893587
30.75033180228344
29.60106979415054
28.30832110587141
26.91431449187827
25.46713367553915
24.01646744683294
22.60999432875464
21.29092631722927
20.09688632864133
19.05996915642998
18.20757847188322
17.56342287458924
17.14794207621921
16.97757041777461
17.06268301619149
17.40462306543683
17.99259228389579
18.80126551428364
19.78983765340345
20.90296118078158
22.07375152432858
23.22873129765946
24.29425967615845
25.20366841300709
25.90404552122855
26.36149285767231
26.56388931666478
26.52072505941502
26.26021805950851
25.82441717176125
25.26323019292311
24.62833747394547
23.96782162607865
23.32209745486702
22.72143673519157
22.18513246924939
21.72212734684461
21.33268626594406
21.01048874365568
20.7445270793827
20.52047357025244
20.32155280485142
20.12920067043845
19.92384453491638
19.68608006134864
19.39841806489038
19.0476175230335
18.6274048112334
18.14116899306497
17.60407549582757
17.04396601457611
16.50045913057474
16.02192920821775
15.66051318809733
15.46579407362989
15.47812473599961
15.72261561934888
16.20469129758175
16.90792027869747
17.79455771186703
18.80889015818922
19.88306309303368
20.94466841158672
21.92502479439274
22.76688728508252
23.43040186818877
23.89650602874145
24.16751968074371
24.26516921198542
24.22663015985295
24.09934858089055
23.9354230188735
23.78622746815608
23.69780036461752
23.70737842176552
23.84128634394332
24.11413279173975
24.52896382113164
25.07787457014087
25.74269493379299
26.49566050367072
27.30026749789805
28.11266297151204
28.88392185791867
29.56343396209358
30.10338723362269
30.46404538919469
30.61926664520099
30.56152242324664
30.30551873824679
29.88944940224405
29.37308131815766
28.832385744524
28.35117280946487
28.01088949693658
27.88015567671137
28.00566890681236
28.40589995567302
29.06861352559154
29.95269163859312
30.99404755929517
32.11470990186827
33.23355840545257
34.27684103528499
35.18665049812147
35.92604928998402
36.48036009198086
36.85498196607742
37.0706863872386
37.15760777692379
37.14913995901091
37.07676997930544
36.96658643451585
36.83785005198811
36.70362843480595
36.57306480573856
36.45446382091474
36.35824797505339
36.29909279424494
36.29706109293632
36.37803750034423
36.57399548364903
36.9235763365451
37.47320544924377
38.27862343793217
39.40638881595859
40.93470651703826
42.95283712896974
45.55828984880389
48.85108346272337
52.9247842849532
57.85485727230355
63.68582610561758
70.4194078589127
78.00592102616909
86.34089283939261
95.2680576117722
104.5889511775619
114.0781482010635
123.5019520719312
132.6371686687089
141.2857824967789
149.2814693451275
156.4854254085756
162.7717607658355
168.0056029086034
172.0188666281882
174.5888900930035
175.4241323884063
174.1595681313571
170.3629711274139
163.5522117306302
153.2228137147488
138.8842822397384
120.1034526159938
96.5532115135248
68.06448675203224
34.67779160013171
-3.311479256810329
-45.32119654510058
-90.47157737307703
-137.6022721113505
-185.3233509924019
-232.1031989287061
-276.3911720238543
-316.7660629926461
-352.0933905909612
-381.6655738125013
-405.2928822748453
-423.31690608959
-436.5352489654556
-446.0493682487853
-453.0657258536102
-458.6879211988546
-463.7361801459159
-468.6244933520683
-473.316446013581
-477.3687224779676
-480.0575021063383
-480.5678604433912
-478.2097724391655
-472.611185282238
-463.8391258906533
-452.4190677551344
-439.2526106078357
-425.4591973439358
-412.1805758057719
-400.3882519964616
-390.7292008216196
-383.4363948785176
-378.3192013462779
-374.8354106660616
-372.2317307518878
-369.722886829423
-366.6658017005101
-362.6843555626476
-357.7162672680988
-351.9789197962685
-345.8726253388776
-339.8509375157554
-334.2893463085869
-329.3799615114706
-325.0728126811416
-321.0750911860397
-316.9090340951595
-312.0173184103203
-305.8919772274726
-298.1932991644358
-288.826266814927
-277.9558512129934
-265.9618712284395
-253.3496384633085
-240.6399356386411
-228.2624854158391
-216.4738559885472
-205.3151115617524
-194.6171214812382
-184.0531375838054
-173.2289618042886
-161.7908537748968
-149.5240477051351
-136.4161690902856
-122.6709086973132
-108.6721655816484
-94.9105618748641
-81.88998281026805
-70.03288407639293
-59.60164263693228
-50.65002233454155
-43.01406566820357
-36.34567577225311
-30.18433612952061
-24.05282174640168
-17.55495170832878
-10.45273568717204
-2.707625989503261
5.518612419928338
13.89887186141636
22.00173864571065
29.36663925806415
35.58059775438339
40.3445224129269
43.51824270471239
45.13607613967886
45.38968107900389
44.58280548227191
43.0703854781936
41.19760190652156
39.25154834249706
37.43208325066052
35.84285632533332
34.49992064954676
33.35352346120068
32.31783737659963
31.302941222961
30.243091061362
29.11565125877804
27.94692511873852
26.80483167821863
25.78231127944951
24.97716962515208
24.47327478402372
24.3260686896981
24.55366053050108
25.13371744815212
26.00581510580574
27.07861930851027
28.24098181375297
29.37564133766089
30.37386359627586
31.14918091168505
31.64834461922042
31.85763317203795
31.80302472784744
31.54374532085121
31.16013831655053
30.73803164955012
30.35237120998488
30.05290459861735
29.85437419976606
29.73307706769991
29.63076444778658
29.46575621859113
29.14981736589001
28.6077544725449
27.79535607563772
26.71123384836608
25.39974157210122
23.9446539530512
22.45543840281937
21.04914570261012
19.83135277627641
18.8795528385067
18.2319599508605
17.88382115119176
17.79209266335319
17.88775307028653
18.09307438257758
18.33943815526386
18.58093514235355
18.80052801752694
19.00810750848594
19.23195976867626
19.50633570542838
19.85818731357228
20.2960776480752
20.80381124454349
21.34043573851138
21.84709209022398
22.25976270127586
22.52517510327034
22.61550100668301
22.53726049495199
22.33155525353876
22.06551186162121
21.81717137961637
21.65729636634997
21.6318737240338
21.74886563264916
21.97208011417348
22.22389050694554
22.39709397745901
22.37448835178254
22.05267144614085
21.36471660072711
20.29605684316019
18.88974086872037
17.24027598863751
15.47799490424946
13.74746298623641
12.18404854881348
10.89282110871296
9.933493712725964
9.314133510280245
8.994953884304149
8.901671463892507
8.945551585652463
9.045010443376162
9.142938207067008
9.21550802928518
9.271209649611167
9.341552385630454
9.46644678076087
9.677865225016838
9.985440057385752
10.36728338555587
10.76845786159527
11.10826960362858
11.29580383232574
11.25071273130473
10.92389380317839
10.31197376402802
9.461294388780544
8.46040279936416
7.423099797499488
6.465904633933869
5.684477790420718
5.133555396378556
4.814408964367453
4.672726616862783
4.608229470440835
4.49521184980966
4.210350820892512
3.66134071180208
2.808957609773527
1.677040931515012
0.3485727701643566
-1.05042061067517
-2.375181213159212
-3.489759577809863
-4.292524025456406
-4.734774349637084
-4.828717108811527
-4.642747650253571
-4.284283551254359
-3.873534347729598
-3.514790321838414
-3.273105441379782
-3.162457473806148
-3.14760776790784
-3.158072055291328
-3.110171178589901
-2.932033841586963
-2.586181331485815
-2.084808863542837
-1.494098597836402
-0.9256606994279474
-0.5155894936888592
-0.3949442554072946
-0.6588737960530423
-1.342921547735276
-2.412960069944669
-3.770857057466761
-5.273753483084359
-6.762205382889809
-8.091334218338384
-9.158941638004
-9.925102297204345
-10.41909961851081
-10.73155350978038
-10.99228428176563
-11.33811831184828
-11.87850928858966
-12.66818994674532
-13.6937557435891
-14.87647381696264
-16.08930461636916
-17.18354910231498
-18.01943062663277
-18.49460803391117
-18.56501422301661
-18.25364961793219
-17.64487027016143
-16.86439109775116
-16.04898887709804
-15.31373750708773
-14.7260453273938
-14.29337938889457
-13.966808860484
-13.65810748860189
-13.26559062610545
-12.70283841459508
-11.92425752617821
-10.94194887006385
-9.829699097485983
-8.711963003864273
-7.738582436131717
-7.049991635501259
-6.741660805075686
-6.837853738899506
-7.281961319900899
-7.945338910592215
-8.651688981061099
-9.21119121703467
-9.45748928786689
-9.280506307793372
-8.648727308374829
-7.616172903759901
-6.311650519347447
-4.911129678957139
-3.598511526881008
-2.52440469802772
-1.773943834505289
-1.351691071350366
-1.185993018905155
-1.149966808943549
-1.093249727031274
-0.87746852534803
-0.408245947041782
0.3427288175430192
1.330414658748639
2.446388898598835
3.545244955762233
4.48206917996514
5.151230617397695
5.515356901431819
5.61657997762288
5.568055586816743
5.52912293488003
5.670525997721803
6.137185444830451
7.015973920986588
8.315043391027025
9.959414734324923
11.80492519132982
13.66911141199
15.37297007605568
16.78317917260237
17.84322756099808
18.58540818128516
19.12182065738584
19.61808339264239
20.2565987828374
21.19724866501932
22.54322368820026
24.31862450760532
26.46252324527753
28.84150327762514
31.27915836996373
33.59645227189488
35.65264779349983
37.37557610228988
38.77360394681669
39.92775047623243
40.96775832095792
42.03884661679701
43.26668714032348
44.72776249464145
46.43106831475317
48.31516790792043
50.26202525729156
52.12567122663026
53.76950401524959
55.10233245287683
56.10280566745993
56.82565449015055
57.38912846485385
57.94805074593707
58.65949573475788
59.6485801025004
60.98116785891047
62.64886157323577
64.56956964874374
66.6043003443777
68.58753978540295
70.36468816041251
71.82696120907687
72.93422326466103
73.72009072331544
74.27929169039793
74.74187919887423
75.24114494133644
75.88232750956986
76.71831687914595
77.73700361756279
78.86287161744369
79.97298946678472
80.92462411494968
81.58838899606644
81.8784216134701
81.7714816590633
81.31046529483324
80.59275159322307
79.74764703363726
78.9089427063226
78.18861517843867
77.65673988363423
77.33119722694016
77.178933350599
77.12849151679114
77.09118955444298
76.9858259658368
76.7602075866566
76.40352354374035
75.9467248298233
75.45194881658642
74.99481498508463
74.64445665713193
74.44583636877987
74.40785639736701
74.49944240748908
74.65434329256044
74.78387415144846
74.79512417344668
74.6104291916481
74.18304141489757
73.50488264574497
72.60487204496117
71.53920485331956
70.3768338030689
69.18394166107201
68.01074662989195
66.88301792699878
65.7995538972463
64.73579248790479
63.65267040331986
62.50870139658294
61.27217570912745
59.93005574508162
58.49113710014222
56.98304257989365
55.44455696409903
53.91586105204389
52.42930591623861
51.00282525545876
49.6372487480589
48.31788578728742
47.01993906756243
45.71658362318423
44.38785743375018
43.02801617895637
41.64914133883671
40.27982149723472
38.95928405316795
37.72866569944921
36.62166868579044
35.65669113890085
34.83194328118191
34.12433552530472
33.49222190365851
32.88147369212761
32.23380994841847
31.49580866766354
30.62673451002956
29.60354232567188
28.42223712506319
27.09584970520862
25.65010167077115
24.11812703715318
22.53548626362958
20.9363393852516
19.35116585408116
17.80596821347184
16.32260578167157
14.91976379535244
13.61396632792282
12.41999726074227
11.35026632421929
10.41311864717825
9.61062459709771
8.936672310918436
8.376099301500174
7.905291404689739
7.494322989320946
7.11036887443212
6.721828066574526
6.302450361378485
5.834769745413383
5.312242951695771
4.73963079658001
4.131421512789095
3.508523537597687
2.893910954085062
2.308154213109327
1.765716701618426
1.272653903379972
0.826057237270419
0.415273594947386
0.02460736965023241
-0.3630566516147041
-0.7624116453230336
-1.182390295952783
-1.623981917833137
-2.079670074318752
-2.534610302272396
-2.969236188147736
-3.36265024733409
-3.696059384724579
-3.955614858036288
-4.134188311004881
-4.231808311622657
-4.254723811934314
-4.213338169231494
-4.119489901173658
-3.983690595762405
-3.812968298452672
-3.609886612646116
-3.373055393937461
-3.099032425998613
-2.785098945494136
-2.432166391687158
-2.047088059618905
-1.643815123043697
-1.243054318302691
-0.8703365543278915
-0.5527006284911199
-0.314495725098256
-0.1730476556379984
-0.1350776316051987
-0.1947548505283287
-0.3340083934446116
-0.5252009052606639
-0.7356532401723993
-0.9330668498555476
-1.090745981548953
-1.191622392879142
-1.230337855421233
-1.213003785071639
-1.15469074246579
-1.075115247917632
-0.9933315653328614
-0.9225057544767821
-0.8659762844704714
-0.8156010470530479
-0.7527901565584144
-0.6518736348996829
-0.4849074046891846
-0.2268201752390359
0.1401460530096159
0.6235534451638419
1.219968024118961
1.916340010471966
2.69324235407773
3.529279056739782
4.405642506586175
5.309604807570152
6.235926240324172
7.185824907732409
8.163963949100765
9.174471190781071
10.21716432610627
11.28500904317111
12.36351881498272
13.43239261766141
14.46924243731329
15.45483050121525
16.37880880075815
17.24455425750804
18.07154202075017
18.89411680460285
19.7565193788636
20.70514923627298
21.77977155760274
23.00553105364178
24.38735981998285
25.90785970528798
27.52912006510368
29.19825972823716
30.85579810041102
32.44529731750057
33.92218769860844
35.25959482149958
36.44964960030588
37.50009109713154
38.4273676774385
39.24829516975129
39.97247180439336
40.597265567206
41.10651004019951
41.47323316630897
41.66593513218273
41.65721001091829
41.43288122112647
40.99938022631409
40.387155752958
39.64877402882669
38.85189893693115
38.06883342212921
37.36510797193311
36.78959654984607
36.36810641825352
36.10160734801965
35.96937427746661
35.93641107622256
35.96369803532245
36.01911938641626
36.08649600446832
36.17028395330468
36.29449292782081
36.49603195382205
36.81427641684488
37.27949950925511
37.902802744321
38.66962251194005
39.5381057670176
40.44278326248784
41.30306198313242
42.03514504756751
42.56515044240695
42.84064919455164
42.83794486245664
42.56343088174098
42.04903814600836
41.3433822899566
40.5010874235025
39.57279224778752
38.59782698580607
37.6007818320077
36.59232866254033
35.5738159302465
34.54441626701902
33.50900048226346
32.48453779824695
31.50296042129975
30.60932001724959
29.85549601844101
29.29104841572148
28.9534846664419
28.86015925380561
29.00352099506372
29.35072789970567
29.84786717020614
30.42819872758572
31.02305829081382
31.57339687119642
32.03954295286647
32.40691247563508
32.68625638567713
32.90844319422316
33.11516889029492
33.3478430907517
33.63706183412604
33.99471323308067
34.41011081613575
34.85076341079497
35.267560424533
35.60335260242504
35.8032059478062
35.82412274147921
35.64200247526333
35.25426186723962
34.67772557433981
33.94267364046168
33.0848079136548
32.13718199122846
31.12391524224303
30.05696065401174
28.93647419977153
27.75458352525802
26.50168765514598
25.17386557562246
23.77956719950446
22.34369714324258
20.90771414732452
19.52541867733708
18.25528957942815
17.15108115320131
16.25268161161117
15.5790520884584
15.12461112328652
14.85982210189798
14.73603651229132
14.69391257235499
14.67402316385714
14.62766143599727
14.52556482799219
14.36259799647651
14.15740089328881
13.94727049341084
13.77961220850423
13.70186875122154
13.75190625992353
13.95056021331301
14.29754862462
14.77134503693241
15.33295194880931
15.93283364747204
16.51955844311424
17.04817531604796
17.48636780181478
17.81711240034636
18.03763363519137
18.15543749081499
18.18280299496968
18.1312489190236
18.00727648828751
17.81027829212931
17.53302670062935
17.16466212408553
16.69555077641161
16.12277724127322
15.45461831710797
14.71246811064739
13.92943203709316
13.14584348229264
12.40281595258437
11.73535969222231
11.16656755778927
10.70405192065318
10.33933449247581
10.05035664558384
9.80674498979693
9.576922790569785
9.335618304131138
9.070005898996252
8.782943856233414
8.49258153296852
8.228626926872757
8.026339289476763
7.919652058045981
7.934823495320646
8.085792058662598
8.37204347950782
8.779327297980284
9.28305756071037
9.853699702924908
10.46289416167644
11.0887120870123
11.71861047253132
12.34940768932183
12.98457112097508
13.62983334823443
14.28842986224362
14.95716571160417
15.62423536335264
16.26933490863583
16.86616773727658
17.38698710757394
17.80832764173973
18.11657683137748
18.31175747051189
18.40816134846094
18.43134131046632
18.41206048751969
18.378624414633
18.34933583606373
18.32667098665461
18.29436731455455
18.21808699411719
18.04976071355522
17.73514547151528
17.22351549956135
16.47777554739774
15.48289503199555
14.25076583879659
12.82045295716757
11.25396692940975
9.6286412998061
8.027692721047659
6.530628286561757
5.204990564283926
4.100573917511817
3.246762112316552
2.653104356082963
2.312678631637359
2.207182311867626
2.312233222723908
2.601402296083491
3.04812855984366
3.625553882789998
4.304993937290686
5.054025708391815
5.835122712428046
6.605576995793106
7.319168504144464
7.929685439183172
8.396003424105732
8.687999295820713
8.79210650571427
8.715008802754715
8.484152631018084
8.144523456293532
7.752141921393255
7.365531942384102
7.036772172364897
6.80372259891847
6.684751166367598
6.676843837230709
6.757436956636863
6.8897509206741
7.030823497002407
7.140803975455639
7.191564110841263
7.172684406525784
7.093538293627204
6.981241272724034
6.875194387207785
6.819547428821981
6.855135092119446
7.012405279114351
7.306602589265009
7.736014632547947
8.283517815776383
8.921019431891335
9.615693598707251
10.33633938696399
11.05811231713548
11.7644574946995
12.44604987254169
13.09746615514978
13.71285024522218
14.28195056027253
14.7877336546866
15.20641588620573
15.51025015447595
15.67282060018168
15.67597510319382
15.51690116290937
15.21343799407187
14.80586578439252
14.35423752425602
13.93150142764303
13.61369624726093
13.46906194436314
13.54798682170885
13.87547303425193
14.44736561694116
15.23100269115167
16.17025280291321
17.1941390691827
18.22746048450009
19.20125214153267
20.06095204869877
20.77087648950338
21.31471087320796
21.69269530974915
21.91673328554205
22.00478559347595
21.97576986190163
21.84588755509111
21.62692834108874
21.32669810308194
20.95123806361844
20.50793253048507
20.00817073072983
19.46830795517402
18.90835280392144
18.34872645001271
17.80611478407338
17.28965866799655
16.798591479054
16.32208284378311
15.84156476462831
15.33530241220754
14.78454148972635
14.18020302700276
13.52874017206688
12.85558523848179
12.20493538471603
11.63551156199207
11.21298027916033
11.00046329430235
11.0488103026766
11.38822108906863
12.02254216413478
12.92716273590469
14.05091089624499
15.32176792507298
16.65559178864969
17.96637668894797
19.17609563340523
20.22225154064343
21.06199794354919
21.67271614207601
22.04975571741792
22.20243980889254
22.14948866263209
21.9148673157001
21.52478518664162
21.00623140666373
20.38708399447871
19.69743841666687
18.97130447036569
18.24742300315199
17.56805230655318
16.97529625280132
16.50552936327567
16.18319353735993
16.01546168818996
15.98910507628863
16.07054274663113
16.20953307765826
16.34632019152698
16.42139712197658
16.38646560755335
16.21466155436016
15.90785647711349
15.49918923018405
15.05002137265886
14.64184183826175
14.36469475690808
14.30418604323286
14.52915542733459
15.08189156095715
15.97235922132108
17.17726956604243
18.64403079593629
20.29876832290345
22.05677731669379
23.8331959429318
25.5517305948738
27.15003808628499
28.58151298394156
29.81419420671502
30.82799643932245
31.61154526023427
32.15971357369389
32.47259683907102
32.55619406663246
32.42459002841076
32.10297040814783
31.6302992050799
31.06013414236109
30.45824510336673
29.89657372380974
29.44426522139546
29.15744642503757
29.06979671301037
29.18581439621336
29.47820835568175
29.89016156185295
30.34242707234463
30.74446644992727
31.0081554395098
31.06192591207541
30.86277119814949
30.40370614468722
29.71520296875044
28.86049634365284
27.92592086164542
27.00824271098022
26.20122518949745
25.58354827377369
25.20980533240376
25.10572664061417
25.26811772789418
25.66924034870332
26.26448094816227
27.00137559144125
27.82782880677088
28.6978806776624
29.57437560801045
30.42887723564492
31.23981498378591
31.99009034792755
32.66532680012683
33.25369561412653
33.74783698447019
34.1488920392034
34.47208537108484
34.75264946060492
35.05038191428835
35.4511816619116
36.06467817655659
37.01821580604894
38.44843845467777
40.49217872853809
43.27826042063096
46.92136077578304
51.5184534590541
57.14767428328309
63.86873686424145
71.72326481472868
80.73274500841006
90.8917075708852
102.1547202344957
114.4177931716059
127.4970312780793
141.108912047435
154.8569643360262
168.2289711846038
180.6074773105661
191.2947193153576
199.5512987337291
204.6459496527407
205.9116372976476
202.8013979781721
194.9366087266706
182.1414034297006
164.4595582450022
142.1532685873714
115.6855490286409
85.68884021469783
52.92197641324166
18.21683160562269
-17.5840897848669
-53.69651595614828
-89.4647227933632
-124.4250870329987
-158.3507139033119
-191.2623004533711
-223.3931885512358
-255.1066826798893
-286.777150418816
-318.6566083707917
-350.752213064127
-382.7386567487935
-413.9251042531343
-443.2893523682461
-469.5821894273234
-491.4933644927739
-507.8576350922532
-517.8652919885318
-521.2310008086986
-518.2772214868899
-509.9084373340655
-497.4818583955229
-482.6048614691113
-466.901094271586
-451.7875050482667
-438.2986493309214
-426.9851969918649
-417.9013865936635
-410.6822289325291
-404.695699246126
-399.2377400380234
-393.7233237354241
-387.8252486191049
-381.528968874966
-375.0989496586251
-368.9759709681709
-363.6374401220947
-359.4550064397478
-356.5798947063506
-354.878957169835
-353.934500421999
-353.1094641879292
-351.6665885903032
-348.9158570592908
-344.3532711051728
-337.7541761066449
-329.1988681031726
-319.0297578529018
-307.7571596972638
-295.9395072858297
-284.0648248027944
-272.4568570727141
-261.2230778751634
-250.2536518381061
-239.2712852628445
-227.9218306965022
-215.884625253316
-202.9736593406515
-189.201976414653
-174.7935355885589
-160.1430063568088
-145.7368727012008
-132.0555045822722
-119.4768136800523
-108.2000683873179
-98.20433537475238
-89.25016763178753
-80.92613342162876
-72.7333516384159
-64.19138916407069
-54.94123636031924
-44.82106695559818
-33.89912808541064
-22.4604513941177
-10.95434831009935
0.08451499622998701
10.12646771393705
18.73345919183713
25.62796939900461
30.73260424496225
34.17259585622821
36.23971822228672
37.32530781591676
37.83893356395268
38.13248774221023
38.44537340231926
38.87847120713128
39.39707901798806
39.85806021542017
40.05381918369253
39.7644941106816
38.80923900079119
37.08750072733999
34.60225252142027
31.46040324268236
27.85154066864098
24.01252718263085
20.18853568648969
16.59961961900073
13.4179192077037
10.75675853482294
8.670391218438679
7.16198130253219
6.197041684854514
5.719460769411391
5.667204228064649
5.984971913108102
6.631878197913
7.58359170957599
8.829685595113576
10.36759144382538
12.19459864929009
14.29925687822797
16.65349986355796
19.20673512714405
21.88301524868104
24.58221202910884
27.18574901092024
29.56687641722668
31.60478898732428
33.20104701728811
34.29565347107119
34.87917656803641
34.9974154966986
34.74671042691276
34.26038835731924
33.68886152914529
33.17695754743002
32.84228534488037
32.75815428963663
32.94388587661946
33.36431142803398
33.93890902823331
34.55935045821373
35.11217847447245
35.50156573881546
35.66682087234182
35.59098261803543
35.29957526164338
34.85101388458067
34.32154821652431
33.78814325505157
33.31268837360419
32.93055885186167
32.64580556515735
32.4341131366082
32.25305549034891
32.05708236537747
31.81279887189991
31.50972646960165
31.1633696800956
30.81012258248798
30.49590149334351
30.26165964321836
30.12926073517389
30.09093773608756
30.10489614120362
30.09859505760816
29.97997360898506
29.65531751318191
29.05046414240808
28.13025201268771
26.91085443655476
25.46149797009482
23.89512133086238
22.35025212309483
20.96794810345918
19.86818957775429
19.13000472586384
18.77895831610219
18.7844353530041
19.06756774274474
19.51872041228921
20.02110935042603
20.47500588883431
20.81645716191912
21.02619940364944
21.12754640341363
21.17490127479905
21.2362572557101
21.37373138870449
21.62623859813735
21.99795603316297
22.45519173995498
22.93278460299162
23.34924176212226
23.62737962104479
23.71496129951785
23.59923316205005
23.31114037522417
22.91836619090785
22.50942300372964
22.17280692210716
21.97580650719925
21.94738118596405
22.06875841001859
22.27410996876512
22.46205519049585
22.51672511731534
22.33447633389121
21.84979774471581
21.05327376919476
19.99661996824982
18.78371822158835
17.5502092552804
16.4363512160338
15.55864349101745
14.98567770622277
14.7229434713844
14.70986680259441
14.83039643957882
14.93597826172881
14.87661440494864
14.53273679694945
13.83976366536738
12.79947725700226
11.47654373002571
9.982349803138526
8.450589839154473
7.009901978728988
5.758940054079156
4.748707294711651
3.975710271003859
3.387694573047747
2.901340423825899
2.428087412605905
1.9011030744489
1.295412991606774
0.635498387612337
-0.01106152807539473
-0.5514390753247989
-0.8922218540281215
-0.9654203787495863
-0.7503322905700734
-0.2864228307433581
0.3262281438273069
0.9403989711275371
1.387994104455041
1.514476173431655
1.213407681157631
0.4519991387017149
-0.7188929530277033
-2.172142696311161
-3.726562119270004
-5.1787830073946
-6.338568674468244
-7.061095630443647
-7.27029760723665
-6.968768412489286
-6.231799816325915
-5.185993513679155
-3.976824754377307
-2.733479140664806
-1.540690015570938
-0.4247851428171847
0.6437845263073476
1.733742890205336
2.92713887487694
4.290477505540777
5.849152252908637
7.570896303255243
9.362495845606185
11.08184961208482
12.56447621511368
13.65943886065108
14.26556051234123
14.35752249681807
13.99446042219252
13.30929827331622
12.48222263614812
11.70470234114506
11.14154246105325
10.89839953079423
11.00119252947412
11.3919467008798
11.94305331127973
12.48854788258606
12.86643774160218
12.96165001610087
12.73783804431713
12.2496457688077
11.63321377740459
11.07839107298701
10.78948003982477
10.94266485634599
11.64840282833092
12.9261839895055
14.6971075336242
16.79688419411613
19.00804062757178
21.10503702371766
22.90118898534368
24.28487778087954
25.23610551176995
25.82096050218085
26.1674881673125
26.42990390788706
26.74931703622264
27.21909435950492
27.86199230185533
28.62420701475542
29.38868910104926
30.00626278722173
30.33804902835486
30.2979845292478
29.88307358096384
29.18289498017812
28.36662900813187
27.65187842814638
27.26294721697823
27.38734528110179
28.13904663346635
29.53574224592299
31.49503822886753
33.85151351971286
36.39261898593693
38.90631894702791
41.22872038789509
43.2789328157586
45.07248392234202
46.71151438203524
48.35605751856193
50.18409534289233
52.34912825357955
54.94370138229682
57.97607381211881
61.36501626407049
64.95470924725693
68.54771661821383
71.94894930417033
75.00911168858752
77.65544840526755
79.9018900673104
81.8375686566303
83.59854842916843
85.330665440827
87.15195676062288
89.12236090086768
91.22674759710803
93.37505310617117
95.42045521655088
97.19287722757642
98.54061269121044
99.36916325461496
99.66628690139838
99.50665501443324
99.03605356128246
98.44043185099187
97.90772132419134
97.59061081431841
97.57737428151351
97.87601982079521
98.41475845729848
99.05919480907471
99.64344586324452
100.0085565317033
100.0385764400467
99.68484151249206
98.9729343744046
97.99232720745405
96.87309222848565
95.75612195226563
94.7634435670014
93.97426872332659
93.41092513774453
93.03704833977508
92.76843405788303
92.49448734560632
92.10524322175438
91.51670743272005
90.68758309772593
89.62359376719725
88.36979824018593
86.99443706399136
85.56915963760302
84.15032858466496
82.76517363647001
81.40536065729802
80.02925938145674
78.57276897968615
76.96674681844767
75.15698961839507
73.12134127477805
70.87908733189721
68.49035130328787
66.04631476947635
63.65327887376882
61.41440824575378
59.41278144492895
57.69861916196493
56.28263349165798
55.13648882017672
54.20031416192253
53.39587268351134
52.64248792391209
51.87187719035094
51.0384653629321
50.12346267436133
49.13298206413293
48.09181700557403
47.03498291371814
45.99899844201657
45.01446716203224
44.10105683863576
43.26555960197302
42.50324295320367
41.80197607237032
41.14770725790572
40.52928928849801
39.940931623621
39.38161401300258
38.85197144552199
38.34989806765969
37.86630576522023
37.3822570808402
36.86826330666878
36.28608114063507
35.59295796648137
34.74790882329746
33.71912782148779
32.49108986355279
31.06962420630402
29.48358032584295
27.78258479847138
26.031360439921
24.30176042474172
22.66395550786828
21.17816635238502
19.88807371989382
18.81670452962206
17.96526967293853
17.31508736470262
16.83225776597894
16.47416706570803
16.19644350613735
15.95897899884926
15.73009482707135
15.48856727034403
15.2237303246188
14.93414593684347
14.62542590490064
14.30775850709355
13.99359049566539
13.69581444707145
13.42672710496783
13.19784810050311
13.02033774129482
12.90539278568472
12.86395210486369
12.90541488763435
13.03560940775001
13.25461614252629
13.55512418889932
13.92186769658077
14.33246486702032
14.75973516703104
15.17534846967575
15.55447222576853
15.8808559427935
16.15146781833463
16.37952569895472
16.59485508417035
16.84109016098201
17.17005871380218
17.63435812818504
18.27943397093006
19.13646061851562
20.21710714393411
21.51092743378753
22.98572108317095
24.59083121972711
26.26292907265189
27.9333143113597
29.53528152403905
31.01001771891364
32.30999315974519
33.39966153644828
34.25405429763804
34.85625354487506
35.19474804744463
35.26145629949848
35.05090081644164
34.56075560205524
33.79376204691582
32.76069322212418
31.48357520190699
29.99795342478625
28.35300854316089
26.60892901245991
24.83183595961153
23.0872686361453
21.43353781739598
19.91617645440116
18.56440955420597
17.39017339738496
16.38984125741035
15.54847248389307
14.84599424504999
14.2641847521883
13.79286508292854
13.43373367746644
13.20093141756491
13.11835678976771
13.21449806239855
13.51593520575957
14.04076277955464
14.79311264756315
15.75978145814729
16.90971531770888
18.19673389079826
19.56528059329012
20.95814783951435
22.32437349440526
23.62537634863416
24.83807197586586
25.95475912584828
26.98041784447023
27.92847330990341
28.81613885310304
29.66033662174236
30.47501916781555
31.27047849057142
32.05484536976207
32.83736051478765
33.63220381177718
34.46108989552159
35.3530006740168
36.34041634779977
37.45269578501482
38.70820285032802
40.1071095153215
41.62661718145701
43.21983767435746
44.81895642302351
46.34266361595087
47.70716487757625
48.83928194779324
49.6892840835371
50.24057584576969
50.51375747714698
50.56393090568633
50.47184670150399
50.33085108836336
50.23225828344809
50.25179256935861
50.43932730686534
50.81349227638226
51.36193622481571
52.04712795406846
52.81651328674977
53.61471709420122
54.39474764007416
55.12540431786122
55.79338031165639
56.40026490569115
56.95601001876025
57.47105027164092
57.94921647070021
58.38312480717694
58.75310439728472
59.03006208945505
59.18195660174225
59.18267524281399
59.02114196116079
58.70788761173521
58.27667153221196
57.78013472267764
57.28026428840094
56.83587152651045
56.48992269880453
56.25942761894958
56.12992715739178
56.05571093275069
55.96594665434422
55.77596609736737
55.401963732454
54.77638136077199
53.86070500987678
52.6528344621415
51.18762451747908
49.53098421162826
47.76929588501709
45.99656146208281
44.30170822944449
42.75812485956374
41.41691666559662
40.30466213227332
39.42566572447672
38.76782036272373
38.3102860283289
38.03063108953508
37.90935550582886
37.9308443757892
38.0811825026606
38.34420074923383
38.69738544278458
39.10907244122966
39.53795719616701
39.93549685860517
40.25124005439265
40.44047833659554
40.47289935738409
40.34026185199379
40.06084581643291
39.67895474921898
39.25905070618982
38.87561649278852
38.60088180051032
38.49283621192465
38.58564035691817
38.88395390944008
39.36204336697431
39.96787044215942
40.63165152246085
41.27756330785112
41.83642435514955
42.25666422623682
42.51116679930494
42.59871772399432
42.54028408762279
42.37152955763083
42.13351036640749
41.86351874884465
41.58775900055528
41.31707526567507
41.04636724775153
40.75768881435436
40.4263188562084
40.02834690936789
39.54779924128893
38.98146575018179
38.34047737526407
37.64888538411425
36.94037969884307
36.25454952465241
35.63387174924377
35.12220493320337
34.76514278164552
34.61217243403663
34.7201718878713
35.1573286834589
36.00608974244581
37.36350250800846
39.3376488033697
42.03988232137732
45.57385092198594
50.02325057462257
55.44061377920561
61.83921711701829
69.18958853886075
77.42126330656686
86.42945833893566
96.085241317655
106.2466156684984
116.7669776067649
127.4972388777214
138.2791862712015
148.9302552787122
159.2227538157372
168.8624553003322
177.471865275731
184.5825747383729
189.6395428728599
192.0185197901456
191.056379080392
186.0927121443536
176.519606808793
161.8355167446348
141.6988411173989
115.9769775049061
84.78672434106171
48.5219411635285
7.86450818317668
-36.22517687601808
-82.541828706875
-129.6962657229301
-176.205091725383
-220.6064133674545
-261.5934308332705
-298.151027440288
-329.6727692634248
-356.0304461163763
-377.5721264224268
-395.0403399161664
-409.4229530163699
-421.7653569497072
-432.9788561389435
-443.678647532123
-454.0791139182556
-463.9655297853052
-472.7498760787917
-479.6052608781988
-483.6587030869854
-484.205729140438
-480.8974733160326
-473.8522150824307
-463.6633539155787
-451.3059230457998
-437.9689790118582
-424.8534591880791
-412.9760830367904
-403.0145870132168
-395.2206415483569
-389.4150234208678
-385.0660553279915
-381.4370644631385
-377.7715534033293
-373.4710635728138
-368.2203627292747
-362.0316781401713
-355.2057449428507
-348.229234922735
-341.6389712367011
-335.8848045006627
-331.2191852495471
-327.6344285917281
-324.8592781391608
-322.415618997653
-319.7241073592494
-316.2342823884439
-311.5450439001128
-305.4828006541592
-298.1188906999305
-289.7275247485013
-280.7008410679767
-271.4446030966633
-262.2783291317036
-253.3602166189389
-244.6515123880105
-235.9275806470056
-226.8345309335016
-216.9808070057378
-206.0430376396692
-193.8588586017579
-180.4819360959798
-166.1862747249439
-151.4217771688114
-136.7342097595582
-122.667866714839
-109.6697751826346
-98.01237632153571
-87.74814849865797
-78.70483038218799
-70.5238804016231
-62.73695288986799
-54.86557939107986
-46.52166673303901
-37.48607158658739
-27.75003648126663
-17.51502233699761
-7.155485162430365
2.845493696018209
11.97550210055421
19.7742133880997
25.90445068550509
30.20150854923414
32.69170506187104
33.57616654949408
33.18404001054937
31.90766960715304
30.13594915906389
28.19954535116042
26.3357944373503
24.67529412558491
23.24815041649832
22.00554608925961
20.85117168662687
19.67642862811782
18.39289297873542
16.9557539602578
15.37380869065567
13.70539460819801
12.04374040872126
10.4972839504538
9.170005968887196
8.145109944780762
7.473738925686069
7.169272816627648
7.207099205352229
7.529442338111561
8.054554260660964
8.689128742073137
9.342332213822187
9.939561291051703
10.43390166363515
10.8132219787944
11.10116345836436
11.35132222386789
11.63546580363172
12.02797805455415
12.58939184660284
13.3519293271809
14.30969917346919
15.41561794790741
16.58615469106816
17.71375128656189
18.68531960822952
19.40354972318764
19.80636112001237
19.87971539251762
19.66067756157202
19.2303031114944
18.69833179154419
18.18304991585144
17.79013742313271
17.5942280686547
17.62642825545177
17.87013550919815
18.26620106405283
18.72675608011654
19.15485752590712
19.46515578523367
19.6002879297277
19.53923232128912
19.29656521990917
18.91401210940356
18.4471085758255
17.95027980533118
17.46359876131305
17.0040430970422
16.56324184314166
16.11254581214074
15.61471973649625
15.03957473700459
14.37905641353485
13.65693954218557
12.92993614020031
12.27981182585814
11.79856539364065
11.57008419868939
11.65207795620072
12.06191293957849
12.76934333640605
13.69806055627739
14.73656217073963
15.75707743288127
16.63912055322886
17.29231282743418
17.67274262122539
17.78894465882317
17.69665821498944
17.48431725983765
17.25287377163725
17.09415067087923
17.07186517373611
17.20890930995926
17.48342857673813
17.83479318392586
18.1786762631073
18.42807815844824
18.51495389320757
18.40652912257875
18.11212307465026
17.67940453017598
17.18186704001032
16.70099715446275
16.30720354237288
16.0434988465999
15.91534599491605
15.88900814766184
15.89928213971798
15.86561926958242
15.71326495447165
15.39388274681929
14.89964836032053
14.26673027830525
13.56742548158582
12.89327451104617
12.33325953597395
11.95177527771872
11.77090088145517
11.76076000122633
11.84045427364689
11.89033085522713
11.77418669154692
11.36734063356515
10.58409200949646
9.397554413717609
7.846988945924133
6.031458299057825
4.092005792236226
2.18659978612805
0.4629009839962268
-0.966029128819847
-2.038550819886763
-2.750552601337453
-3.149410005759716
-3.316710817114389
-3.343633040980392
-3.305600002096443
-3.243510739803366
-3.156579297404032
-3.007879979113029
-2.740198884153227
-2.29782622578727
-1.649234854531302
-0.8055987141239929
0.1692726474030078
1.160653753496526
2.017386785773515
2.577653321477236
2.701244777695883
2.300510474795916
1.361534495679739
-0.05012214381310587
-1.800063364157835
-3.708882070053322
-5.583673569123528
-7.251008774002057
-8.585257575397971
-9.526992347083699
-10.08781980128612
-10.34018922102409
-10.3935589021486
-10.36196231765983
-10.33139396280176
-10.336152763926
-10.35026400269144
-10.29508639992295
-10.05994482137637
-9.530381823346993
-8.617896529068675
-7.285060890265159
-5.560626780984217
-3.540830956555651
-1.375401415929938
0.7601805142106396
2.700647365785908
4.326027670977783
5.586086298279786
6.507776290137037
7.18486447461003
7.753525983384677
8.36008738281341
9.127734244665758
10.12875833563711
11.36798695429354
12.78129261120778
14.25060805852907
15.6335272497627
16.80124634905973
17.67477012444282
18.24879773764373
18.59661367173572
18.85544864439833
19.19689183286908
19.789545718605
20.76175086210135
22.1717921428829
23.9917396947962
26.10891250392645
28.34605133585625
30.49755503014639
32.3744922007894
33.84714407845517
34.8735084972997
35.5065617156698
35.8797359859638
36.17558907711138
36.58545437021598
37.2685187291239
38.31828648999243
39.74303514409759
41.46458151385671
43.33658049105853
45.17959232796296
46.82531443554875
48.15840487242032
49.14419082525153
49.83518836388743
50.35620046212357
50.87330843476752
51.55478665318721
52.53243131279827
53.8710496596396
55.55228759501227
57.4765988548014
59.48409042697981
61.39107761742535
63.03448628251777
64.31250745719272
65.21005102010064
65.80236787686462
66.23709474204087
66.7004698435637
67.3760944996918
68.40495678270773
69.85452200177023
71.7029435921172
73.84192110970018
76.09855650816048
78.2726474438605
80.18135267192132
81.69981629702387
82.7868162538766
83.48936284735649
83.92679188316386
84.26002272571559
84.65396767744306
85.24118571850046
86.09380954908126
87.20903583828446
88.51114699162277
89.87016132833733
91.13367031465381
92.16445747374355
92.87377286790876
93.24094969703357
93.31464523980436
93.19687709111878
93.01537036251567
92.89149724354756
92.91086780811726
93.102360024231
93.42958560191192
93.79665209855017
94.06761765874033
94.09611087838918
93.75846535470104
92.98183399759615
91.75986403936832
90.1525769975462
88.27192183554403
86.25781911758091
84.25071745807207
82.3663046454569
80.67683704599675
79.20205731671174
77.91103925421575
76.73447956981452
75.58479107016802
74.37908653849654
73.0589005338557
71.60149265023672
70.02060130905146
68.35789733361372
66.66857833095904
65.00519328456865
63.40335476632365
61.87204919395389
60.39017097587868
58.90983804055361
57.36592394730759
55.68991446644876
53.82484307988631
51.73743039327609
49.42436714036273
46.91169719109892
44.2483658140456
41.49627451534615
38.71947670462709
35.97476924030207
33.30523088583301
30.73749593363358
28.28287183089014
25.9417759053222
23.71027083677255
21.58682883277122
19.57727563236257
17.69650189816533
15.96673980951021
14.4132993460264
13.05916613735861
11.91981902890892
10.99930522719997
10.28822072083995
9.763876335696029
9.392598219166459
9.133770581513051
8.944849767196578
8.786258017092274
8.62502812243249
8.436474522075285
8.203864376174774
7.916670385716463
7.568242541428386
7.153669418454331
6.668367157014187
6.107650047155495
5.467276848762567
4.744775083940142
3.941202229942192
3.062871909850756
2.122484422262961
1.139155595254463
0.137114155474909
-0.8567372734013219
-1.815846962242259
-2.716958314703977
-3.542415180433093
-4.281479967994462
-4.930529774624249
-5.492172519768617
-5.973474821259521
-6.383638407318857
-6.731583487563245
-7.023942045215098
-7.263886464118696
-7.451002426340064
-7.582111674049062
-7.652698900609096
-7.658509989775864
-7.596945478534547
-7.467982325587913
-7.27446295039151
-7.021692926457952
-6.716415220394134
-6.365386450055321
-5.973922419594611
-5.544842941643713
-5.078193578086301
-4.571936079928864
-4.023504788720127
-3.431836087030723
-2.799323928858484
-2.133171884377053
-1.445739940523856
-0.7536552764036019
-0.07566213409300085
0.5705482811937195
1.171989099328374
1.723745087036939
2.231236138884618
2.710713008829467
3.18767538328478
3.693382358986246
4.260084020843313
4.915888934366942
5.680236474444915
6.56080573715521
7.552435706130358
8.638287557458316
9.793055034460505
10.98757533797982
12.19383107508248
13.38918597453098
14.55883471182077
15.6958748575082
16.79903137583519
17.86868609235438
18.90228891383614
19.89035435593541
20.81408576895241
21.64530187956105
22.34886587562024
22.88731149572956
23.22687772779072
23.34377314434936
23.22929649398877
22.89255677052734
22.36001522289537
21.67181678973679
20.87565223597622
20.01944676028668
19.14437344016339
18.27955059913162
17.43939780013464
16.62409927184959
15.82303130728937
15.02041747784704
14.20196068717948
13.36087972896945
12.50181772942546
11.64160771894663
10.80676189275575
10.02844482416981
9.336252945221974
8.752246122526783
8.286484202507975
7.934973836749116
7.680491486227602
7.496224512807922
7.351604389021777
7.219163460143722
7.080845662584839
6.932165972401293
6.78312851896372
6.6557433416619
6.578896604955795
6.581866277659104
6.687877700766596
6.908923722414383
7.242798471431709
7.672952118317228
8.171320239999343
8.703698360604864
9.236579838787778
9.7438286368823
10.21142813899608
10.63906037582715
11.0382558467755
11.42782807529621
11.82789166609082
12.25389663937869
12.71193596692846
13.19626981962244
13.68964629848181
14.16655759542132
14.5989953807271
14.96358107968676
15.24833507539615
15.4571772599922
15.61079475341372
15.74360411543741
15.89763977435843
16.11487491134188
16.42964361092691
16.86264197765493
17.41761006481149
18.08130986605929
18.8268373433547
19.61966663793774
20.42516801142314
21.21580047617905
21.9760548129699
22.70377561844422
23.40758887598397
24.10129851529877
24.79683572866297
25.49752372696038
26.19319171544325
26.85822994895892
27.45314524116809
27.92958001569002
28.23809378473408
28.33732104541605
28.20258098190885
27.83190902305722
27.24802251722516
26.49579561025383
25.63595736491215
24.73651450701182
23.86367154141388
23.07385924915437
22.40808607227431
21.8893593327402
21.52341829830349
21.30244128827414
21.21076369769623
21.23112838639754
21.34981847722043
21.55936524970412
21.85830795417822
22.24838854194153
22.73024781871457
23.29897557522843
23.94076930908617
24.63160253928746
25.33834049251729
26.02225254301284
26.64438026859555
27.17175158576619
27.58307188815126
27.87243733913396
28.04995658166296
28.13891204302477
28.16999487554792
28.17388965445858
28.17385280578791
28.17987689173081
28.18564395456037
28.16888171671241
28.09508337631131
27.92393772983707
27.61729293231899
27.14709254210921
26.50159811794864
25.68850104426421
24.73424064670793
23.67977257489211
22.57384295589112
21.46526608657458
20.3957229073623
19.39433069471934
18.47484734519935
17.63591817952032
16.8642309176826
16.13985124378743
15.44249227462696
14.75720705623784
14.0781472128286
13.40961305525482
12.7644168776111
12.16027532125095
11.61531904828813
11.14383620160824
10.7531705106272
10.44239606005068
10.20303371003419
10.02166874027114
9.88389237706263
9.778570033455098
9.70118089328358
9.655092954228572
9.650211730325731
9.699253995949103
9.812584779803553
9.992884587233453
10.23089950256722
10.50329605051004
10.77326814219882
10.99405341889066
11.11497439587969
11.0890951633549
10.88112429753969
10.4739251167147
9.872139957333426
9.102094161681256
8.208091571382612
7.246025813757556
6.275631405433303
5.352722523104638
4.522611676676251
3.815659131812366
3.245537685785818
2.810301036252201
2.495804696005105
2.280555063263049
2.140783691168803
2.054611794836345
2.004610959920008
1.978668980684644
1.969537964165318
1.973635136146926
1.989647768835792
2.017382164479464
2.057147252609552
2.1097837228108
2.177259183431315
2.263566586226408
2.375495763279336
2.522765930761625
2.717136431754816
2.970467258700452
3.292094467693927
3.686108021002743
4.149126508830974
4.66904285480229
5.225050056028409
5.789071235283092
6.328514652567231
6.810059027040397
7.203958363940085
7.488163785599506
7.651478329665669
7.695111545635788
7.632392733305145
7.486854505578877
7.28920003291899
7.073756678388344
6.874964756363688
6.724331186137851
6.648138814245474
6.666072944016602
6.790811480386707
7.028480643523817
7.379667632375639
7.840483850768663
8.403162590663138
9.055926141436407
9.782228344820888
10.55976464474476
11.35975297707232
12.14694799906035
12.88071352054957
13.51729715633352
14.01326133109309
14.32982281126588
14.43761250964014
14.32109948065461
13.98174616706933
13.43905850057192
12.72912302616017
11.90081514031491
11.01036139767979
10.11519162603781
9.268023271456995
8.51197960927835
7.877358012806534
7.380459994560876
7.024628245451694
6.803266725123697
6.704174570211604
6.714148082121433
6.822716161537148
7.024174931054334
7.317638110236686
7.705363199578598
8.189972901565362
8.77134061712636
9.443909458745138
10.19511398047414
11.00537598249917
11.84984702119147
12.70167348029833
13.53609124946724
14.33425596557605
15.08563325752225
15.78815708671227
16.44607163098982
17.06607377527499
17.6527967228904
18.2047540660873
18.71169848732399
19.15405964615046
19.50476833314581
19.73336547688192
19.81183158229315
19.72106798531127
19.45655538947816
19.0316726424642
18.47764139635708
17.83992967927578
17.17183879558517
16.52658993010468
15.94941609941286
15.47104216200361
15.1036290939517
14.83984911614838
14.6552856061837
14.51381037633462
14.37497259567742
14.20187562779177
13.96782041541078
13.66035872239213
13.28219101865745
12.84918123794827
12.38632539911031
11.92273725079417
11.48670497571901
11.1017188694085
10.78411336811093
10.54264644386349
10.37994734433113
10.2952629911117
10.28744510774303
10.35696424309363
10.50612349382386
10.73739450757532
11.05048521595965
11.439085951738
11.88824722439153
12.37316494145758
12.85986710014616
13.30795346503648
13.67519578673463
13.92345287626799
14.02493841948343
13.96751190272907
13.7576502047757
13.42027212220411
12.99541979183102
12.53253823277933
12.08348718909684
11.69549327052274
11.4051370013335
11.23425011739335
11.18831056158772
11.25758419195336
11.42082847794626
11.65080026454212
11.92025637081183
12.20696097753324
12.49662012675491
12.78343251686441
13.06863711166905
13.35779673091199
13.65763880326127
13.9732255854527
14.30608508176552
14.65369475535328
15.01041335942973
15.36961412204912
15.72636214569292
16.07962455662608
16.43299215865868
16.79336471530346
17.16778506038586
17.55921576365987
17.96231648200248
18.36023210849735
18.72318247332153
19.00935533866664
19.16828399436347
19.14654167249714
18.89517053596423
18.37777128772657
17.57777314444935
16.50337618043755
15.18912427442553
13.69381411353173
12.09515298825002
10.48206333220554
8.945772111893282
7.570871596632932
6.427463539454095
5.56534963253833
5.011002935008341
4.767671954696598
4.818377331848518
5.130915945961917
5.663623745241689
6.370750493661284
7.206716055012403
8.128967972951173
9.099485669176985
10.08518035356999
11.05759136476861
11.99240048143261
12.86931247444572
13.67270819935962
14.39313674798495
15.02921854986725
15.58907635388417
16.09030047472293
16.55782899010706
17.01979869940191
17.5020694226843
18.02251184105164
18.58622460788246
19.18268639466391
19.78555317047612
20.35543860356284
20.8455849347735
21.2098172127103
21.4115648970483
21.4322076862668
21.27690135664943
20.97654202114552
20.5854317288354
20.17512690813783
19.8256101534284
19.61526072871041
19.61116363002023
19.86115454391297
20.38870429908022
21.19134265030949
22.24277121522367
23.49807266319406
24.90066472920358
26.38927608556137
27.9034905498987
29.3871543769413
30.78975674420423
32.06644279266655
33.17750985260439
34.0881678355757
34.76914844617389
35.19850232941637
35.36463255249234
35.27020713033025
34.93603591844816
34.40349051389436
33.73399281127415
33.00471645807682
32.30070790038067
31.70465242047242
31.28610607329444
31.09210107128618
31.14073775601983
31.41886272990678
31.88431758434866
32.47258973242342
33.10698351182646
33.710640094021
34.21809446264204
34.58400138054821
34.787399627495
34.83111202389237
34.73703214669206
34.53875408642569
34.27324176930099
33.97315742774854
33.6611793719696
33.34720203276243
33.02878942881937
32.69463775430413
32.33007783889814
31.92303962564083
31.46883768655896
30.97278515835054
30.45062676007384
29.92751648959872
29.43649022790997
29.01724536705538
28.71575629903682
28.58490098985718
28.685906216067
29.09013128868659
29.88047151979632
31.15137328569666
33.00627486659079
35.55162876532226
38.88764649115846
43.09708345561102
48.23412273249823
54.31548372995311
61.31546496551641
69.16596580476507
77.76170226580557
86.96988681848025
96.6426599701186
106.6295784234404
116.786637308825
126.9781966475209
137.0694807714849
146.9099675051261
156.310878922382
165.0218346446908
172.7120233077811
178.9603035187951
183.257094792309
185.019333404327
183.6183873746394
178.4195009280967
168.8299709611135
154.3521500039988
134.6368542529576
109.5327154348139
79.12712094083932
43.77453070435661
4.10819645697774
-38.96843523112519
-84.31418438341589
-130.6094724189041
-176.4435517892431
-220.4266763848738
-261.3188683790565
-298.1605298641406
-330.3829671634198
-357.8721023863409
-380.9624798722062
-400.3537955899399
-416.9625744846663
-431.7374361861137
-445.4726232951972
-458.6529071491913
-471.3571714384101
-483.2391742854066
-493.5924021446022
-501.4925853649422
-505.9968130281594
-506.3623611457468
-502.2360957006748
-493.7665784233345
-481.610713867371
-466.836747177715
-450.7509918004603
-434.6883589630683
-419.80791013193
-406.9292796985636
-396.4367586986303
-388.2660300886394
-381.9750564165304
-376.8855777443497
-372.2648763741135
-367.5035938374622
-362.2441991282025
-356.4308011291572
-350.2766784129857
-344.168079381065
-338.534303478587
-333.7159443579105
-329.8594683698215
-326.8592493886675
-324.3586846065201
-321.8111211089158
-318.5892341235491
-314.1184097201528
-307.9999235927294
-300.090731588437
-290.5206683483503
-279.6476768664735
-267.9675865481365
-256.0024403314644
-244.191946755964
-232.8093289191763
-221.9171076622524
-211.3708231647043
-200.8702067211675
-190.0478930503536
-178.5756064184249
-166.2606047101582
-153.1067590423089
-139.3259026222895
-125.3001019469597
-111.5072524367659
-98.42807666087424
-86.45352326597202
-75.80984050699759
-66.51503003203167
-58.3752398216926
-51.02336775574486
-43.99435383457872
-36.82232290508368
-29.1373719352695
-20.73956001450399
-11.635386368112
-2.033055452598614
7.698087738459944
17.0934008303684
25.67144480192139
33.01212328017633
38.82208789538868
42.97670034936697
45.53081357080755
46.6959441544206
46.78943040155382
46.16898639626093
45.16900744724813
44.05170412260439
42.97970834845371
42.01089729155974
41.11236256405688
40.18845313457469
39.11683398005481
37.78595254117508
36.12707194164614
34.13455871194811
31.87036267451183
29.45289287088384
27.03500902678154
24.77799264312656
22.82748327913915
21.29504128668158
20.24685284115103
19.69967592479389
19.62337471355516
19.94903746980683
20.58136431811203
21.41358858491823
22.34285203819744
23.28393244009037
24.17946681187324
25.00513791032756
25.76879800213373
26.50347203283741
27.25548116055176
28.0699732636003
28.97654598627371
29.97752473346374
31.04106596303151
32.10062527709216
33.06144753662207
33.81369717929117
34.25060776936198
34.28850163127957
33.88423569318959
33.04565066082908
31.83237665890066
30.34699859101648
28.71878325217983
27.08330860897651
25.56163150410607
24.24246456284249
23.17031648921
22.34168346904869
21.71021577947409
21.20021894542102
20.72578582949512
20.21094108720567
19.60569967424259
18.89445145267491
18.09567179900551
17.25421561827551
16.42871378715817
15.67705987749391
15.0430421821769
14.54692307194825
14.18211262712487
13.91903243997893
13.71574918511287
13.53292323326722
13.34872491682465
13.16892649758192
13.02896569784541
12.98747963983091
13.11316355938445
13.46808941437222
14.09101005462904
14.98407558335679
16.10588834025902
17.37287972517797
18.66969175056095
19.86754810325796
20.84740018701862
21.52257683766627
21.85515284862817
21.86198203040517
21.60940732388251
21.19848483047499
20.74426078139436
20.35330691843805
20.10373234437014
20.03137529487411
20.12485579546698
20.33076193954011
20.56838388917535
20.75095479324039
20.80798604329713
20.70253011746931
20.43888566252588
20.05944748876272
19.63238652389467
19.23363604549359
18.92734982060993
18.74901301107072
18.69485646512977
18.72015080990745
18.7474756642927
18.68411598995471
18.44516707767613
17.97645447070785
17.27066993992018
16.3720954914872
15.36890295581227
14.37535050191538
13.50813433760615
12.86181623095918
12.48815742819651
12.38351304371742
12.48717249135183
12.69181398795337
12.86501697787646
12.87786586267637
12.63387295576555
12.09059442363347
11.26842861391345
10.24506300619429
9.137764506589672
8.077961340200307
7.183470590873243
6.533813855394464
6.153453227854407
6.006454684103887
6.00424871071265
6.025762733547804
5.946008337938014
5.666047153839306
5.13616874977642
4.366257713074075
3.421532709718196
2.405801086738053
1.436731511896609
0.6185621895278571
0.01776650101434374
-0.3533577839414438
-0.5414925559950973
-0.6436693334744878
-0.7858811669505712
-1.093021286200068
-1.657646826785913
-2.516260897485163
-3.639499935690318
-4.93808429735796
-6.282148015303325
-7.529053110937543
-8.553817897471594
-9.276180858002101
-9.678937596062584
-9.813567702399217
-9.791110407508539
-9.758868250012267
-9.86716701838532
-10.23413587924788
-10.91787703368312
-11.90306957864614
-13.104357764234
-14.38444989587348
-15.58217677788048
-16.54459704394699
-17.15691687828978
-17.36441918679454
-17.18187884760039
-16.68790402521765
-16.00440193932881
-15.26525389058608
-14.58226994122612
-14.01801637083868
-13.57271989828282
-13.18761739447649
-12.76259355412607
-12.18323238623176
-11.35125453247805
-10.21203222026526
-8.773356276614546
-7.110978715708235
-5.358523709248645
-3.682303587112761
-2.245722756057882
-1.172144943163763
-0.5165799659111545
-0.2537974863330453
-0.2851089532210483
