-55.3852718750105
-100.2442433545124
-144.1385606599185
-186.1412242015525
-225.4642704482071
-261.492529118335
-293.7906103838886
-322.0879857089039
-346.2519246292608
-366.2590206920125
-382.1732356210324
-394.1337027393498
-402.3514073701026
-407.1117387419634
-408.7793168158871
-407.8009984508707
-404.7021576026386
-400.0713090359808
-394.530083954599
-388.6896463420224
-383.099826341302
-378.2013102902959
-374.2917046882069
-371.512526414712
-369.8582275808652
-369.2033314039804
-369.341215375108
-370.0275228209928
-371.021518033165
-372.1194968070048
-373.1757218070189
-374.1084050369715
-374.8911146977438
-375.533458798419
-376.0579036016848
-376.4803316557973
-376.7995756932615
-376.9970577059194
-377.0442732334841
-376.914389571214
-376.5941989155265
-376.0933189498656
-375.4485273578156
-374.7222310400174
-373.9951118827051
-373.354012035601
-372.8772598010207
-372.6206352660218
-372.6073068036158
-372.8238843315233
-373.2228164540074
-373.7298375487333
-374.2545417945029
-374.7021280237208
-374.9845939912361
-375.030074405598
-374.78950656764
-374.2402150681662
-373.3863148091191
-372.2561502995067
-370.8973528649749
-369.370360065361
-367.7412575350232
-366.0746491112595
-364.4271218555361
-362.8417841391538
-361.3442495484329
-359.940335064292
-358.6156861164145
-357.3374678369092
-356.0580620304015
-354.720395435654
-353.2642503698783
-351.6328176367435
-349.7788288104202
-347.6697296233467
-345.291471779252
-342.6506223940246
-339.7745976000789
-336.7099066279962
-333.5184257898994
-330.2719695633865
-327.0456986147848
-323.9110635763449
-320.929023936404
-318.1443270472079
-315.5817257602781
-313.2449582864264
-311.1188785397204
-309.1744194403374
-307.3754775907016
-305.6865271919151
-304.0797298728357
-302.5404370472372
-301.0702813318147
-299.6874439049086
-298.4240486110222
-297.3209759242566
-296.4208190244372
-295.7602076481672
-295.3630119679261
-295.2356878533829
-295.3653358069786
-295.7203751339493
-296.2533575916417
-296.9052906850021
-297.6108042307413
-298.3035551659518
-298.9213587385152
-299.4105654835297
-299.7292011344083
-299.8484984323956
-299.7527582597936
-299.4378583244613
-298.9089609296029
-298.1779880428953
-297.2613283595154
-296.1780817989351
-294.948942370122
-293.5956467421925
-292.1408444844532
-290.6082112805992
-289.0225296849
-287.4093488288291
-285.7938613112432
-284.1988836428808
-282.642197448176
-281.1338140408932
-279.6738548539894
-278.2516834284775
-276.8466819892503
-275.4306812018731
-273.9716809515477
-272.4382859826522
-270.804201801107
-269.052100619727
-267.1761970065661
-265.183087052713
-263.0908203786637
-260.92660502772
-258.7237668372904
-256.5185738084882
-254.3474205900104
-252.244689554737
-250.2413383532347
-248.3640134122954
-246.6344046075499
-245.0686092214204
-243.6763272841198
-242.4597616075127
-241.4122683874222
-240.5171184658046
-239.7469831069269
-239.0647202974401
-238.425730312627
-237.7817909752424
-237.0859850976858
-236.2980797425407
-235.3895693559532
-234.3476280391183
-233.1773470806186
-231.9017503094856
-230.5592544335244
-229.1986357475317
-227.8721658756714
-226.6281276156994
-225.5041204042017
-224.5223507884874
-223.6876445072919
-222.9883760844867
-222.3999856004042
-221.8903672833894
-221.4262345644217
-220.9794786485651
-220.5324455235419
-220.0810830150851
-219.6352546759424
-219.2161856612495
-218.8517533069741
-218.5708448363907
-218.3981082359556
-218.3501581271397
-218.4337962320898
-218.6462419470539
-218.9769674348052
-219.410579489495
-219.9301137928387
-220.5199542191214
-221.1675032710298
-221.8629617831028
-222.5971617258251
-223.3581107157672
-224.1274427683247
-224.8781187073479
-225.5744364871137
-226.1747631861835
-226.6365922103927
-226.922927482101
-227.0088229096602
-226.8869677934238
-226.5712303231091
-226.0971309146736
-225.5185899455242
-224.9010451046302
-224.3119522654459
-223.810455836848
-223.438362894821
-223.214326970252
-223.1323598166273
-223.1647097215113
-223.2682524695713
-223.3931197220761
-223.4921319715719
-223.5294199180892
-223.4865285615121
-223.3646222199679
-223.1822188760756
-222.9689667731838
-222.7570118880751
-222.5721590028899
-222.4270490090362
-222.3179025017012
-222.2252822723063
-222.1183452785733
-221.9615272206498
-221.7223379553671
-221.378665713852
-220.9238453486053
-220.3680742423821
-219.7356033798752
-219.0582513324864
-218.3668599279493
-217.6829867011171
-217.0131180863414
-216.3469077672043
-215.6597088630907
-214.9185995832689
-214.0905735390749
-213.1513517156673
-212.0930555879685
-210.9289000833715
-209.6934407205135
-208.4377811544022
-207.2203237336072
-206.0948573127441
-205.0986501558837
-204.2433585918899
-203.5108217665068
-202.8544946226918
-202.2060192251128
-201.485660966624
-200.61487783345
-199.5288892589789
-198.1869181439278
-196.5780812157969
-194.7217181227004
-192.6621274959333
-190.4590062449487
-188.1759747520357
-185.8699365698236
-183.5834662043866
-181.3412746285556
-179.150730665483
-177.0057832671523
-174.8932266763193
-172.7998318869378
-170.7186017667536
-168.6525454092677
-166.6149061441656
-164.6256314789188
-162.7049478825708
-160.8658804714929
-159.1079446112956
-157.4137752010971
-155.749437906714
-154.0682180990614
-152.3171528202499
-150.4452547362507
-148.4120399280942
-146.1947459829605
-143.792701620916
-141.2276786966814
-138.5397331551109
-135.77906203749
-132.995519217405
-130.2281032030948
-127.496583249004
-124.7966584267757
-122.0992300130758
-119.3538355530606
-116.4958564639155
-113.4565552059242
-110.1744276969925
-106.605943395028
-102.7335870088875
-98.56942461169373
-94.15338228110238
-89.54678653735
-84.82280462861674
-80.05576739872323
-75.31111388219284
-70.63735675630217
-66.06122962949007
-61.58684203557063
-57.19908090980599
-52.87072661883774
-48.57189787929256
-44.27967947001871
-39.98553756322854
-35.69873988370842
-31.4452494443119
-27.26276021251899
-23.19319538019457
-19.27417114927849
-15.5309699209537
-11.9705718627008
-8.579131632933676
-5.323837115447699
-2.159286484866782
0.9626288463151564
4.081551141910611
7.219039849704217
10.37295579790436
13.51707152730501
16.60580325268024
19.58301748275361
22.39329210356513
24.99362470260753
27.36338904160606
29.51045731781348
31.47189806513049
33.30860319263849
35.09459211053657
36.90322039237913
38.7934036592377
40.79880656396832
42.92195115840435
45.13398383314424
47.37981984464641
49.58757987057676
51.68059024445338
53.58980591544361
55.26439646437841
56.67845586618621
57.83249765489263
58.74963435059021
59.46775995858769
60.03001241026764
60.47588846264595
60.83478322082428
61.12290283609199
61.34374274443773
61.49164585947033
61.55736537573323
61.5341644370456
61.42285180259442
61.23431493035361
60.98869135868675
60.7113330038171
60.42681391608208
60.15285943418939
59.89595869756916
59.64977297715471
59.39668579313784
59.11218296579144
58.77120000152961
58.35514563744634
57.85809661426
57.29070369757402
56.68068055627479
56.06945480395199
55.50559870833624
55.0366369430032
54.70123893307225
54.52347188941505
54.5100329851694
54.65065187094618
54.92133126588349
55.28967049252819
55.72114115091043
56.18496490018198
56.65828666755024
57.12768368034731
57.5877328899398
58.03728022808345
58.47484224219128
58.89477648488425
59.2853819300477
59.62930390407266
59.90598479716292
60.09556177572242
60.18341889057889
60.16444943247136
60.04601882006747
59.84870891156914
59.60424670183914
59.35066043004793
59.1255755205253
58.95927113732127
58.86923639547933
58.85743323272547
58.91065403653997
59.0036818954347
59.10456631580833
59.18111756464177
59.20758337831962
59.17037677786829
59.07172999843294
58.93039645423526
58.77913879947759
58.65962309027309
58.61608610454982
58.68934386889423
58.91230913648922
59.30751818268112
59.88662360166902
60.65152344003492
61.59666378808378
62.71193736181628
63.98545776214518
65.40538344379297
66.96007379147132
68.63634907147635
70.41641471971901
72.27469622459894
74.17597383994404
76.07572223418867
77.92279789658149
79.66400755454612
81.24977491633265
82.63998892782634
83.80906582191268
84.74928526857738
85.47159490107349
86.00339001116241
86.38336779231415
86.65436666726582
86.85578313298187
87.01729967878009
87.1551695965282
87.2715275129912
87.3565544687994
87.39294181958078
87.36181695556942
87.2490253964141
87.05050097204096
86.77552421473212
86.447030098276
86.09878581979312
85.77009519910432
85.49938064341717
85.3182031130976
85.24693127632673
85.2926362946789
85.44923540951909
85.69958192216806
86.01899935859976
86.37956644424123
86.75429889528861
87.1203484501466
87.46054567361023
87.76309208776767
88.01985461372826
88.22423971781778
88.36972202198389
88.44971926820376
88.45890048048939
88.39552894472621
88.26422285028575
88.07848194723445
87.86235191124265
87.65064054405423
87.48720701210152
87.4211102867361
87.50089174406527
87.7678828654539
88.2498855199584
88.95659039857513
89.8776496374288
90.98365341956068
92.22969096261522
93.56083790644335
94.91873894300308
96.2483491096772
97.50385157738023
98.6528477939078
99.67819045244057
100.5773216701168
101.3595784656543
102.0423921173996
102.6474185994801
103.1973856876197
103.7140385468703
104.2172453506431
104.7251477831495
105.255105160049
105.8250184166939
106.4545080318234
107.1654701477728
107.981775483822
108.9282558131852
110.02952487959
111.3094087280963
112.7916430031041
114.5020557071871
116.4719336559511
118.7419162990034
121.3655979838419
124.4119067115926
127.9652159428025
132.1221626911095
136.9844108020648
142.6471367291839
149.1838250482747
156.6289549639204
164.9610323273102
174.0888011775606
183.8432270247475
193.9771567598486
204.1736611168687
214.063018111182
223.2470401989413
231.3280356179323
237.9383691218197
242.7657029454437
245.5690581616426
246.1823593093679
244.5049781632978
240.4818520818226
234.0777358521901
225.2506331670074
213.9288677153068
199.9951538105538
183.2796917622634
163.5629018077063
140.5872192716416
114.0767027010182
83.76311744638063
49.4174953085736
10.88643832766773
-31.86829159486298
-78.7305516992424
-129.397387452411
-183.3615202281985
-239.9165429220066
-298.1902875673272
-357.2080678868372
-415.9826680706461
-473.6220731149774
-529.4392563852863
-583.0421821878001
-634.3796184727908
-683.723334699419
-731.5810756092947
-778.5530290719124
-825.1598015229655
-871.6770643349662
-918.0106836461869
-963.6385388152698
-1007.633644695301
-1048.76933897909
-1085.692715488803
-1117.138487737006
-1142.143600146339
-1160.216863524354
-1171.42332742339
-1176.362223686982
-1176.044227346644
-1171.697875484684
-1164.548634041249
-1155.615988281143
-1145.566596037362
-1134.648040891531
-1122.710988148845
-1109.310882838774
-1093.866128777336
-1075.838625139909
-1054.896293490734
-1031.020103109827
-1004.532508070808
-976.0458213872679
-946.349221149835
-916.2653163349204
-886.5101026280331
-857.5854926673895
-829.7236517393313
-802.8896340551265
-776.8366856097871
-751.1994217130565
-725.6037046779603
-699.7683659767681
-673.5754030414272
-647.0938712082409
-620.5558741371838
-594.2953711031904
-568.6679887611347
-543.9719332069494
-520.3874960007505
-497.9466500662396
-476.5362960135976
-455.9312784803236
-435.8481728599278
-416.0077569783572
-396.1924463583971
-376.2859286429594
-356.2869075086579
-336.2959086551115
-316.4806529545286
-297.0296858376602
-278.1054416670946
-259.8069371778342
-242.1490760037897
-225.0609804309723
-208.4015823008103
-191.9881139335661
-175.6317441357907
-159.173677324448
-142.514978390877
-125.63486696682
-108.5948565867664
-91.52896116119996
-74.62272580827472
-58.08575023538837
-42.12315082378733
-26.91072341032532
-12.57685016120651
0.8075414899027179
13.2307214304561
24.73394672065906
35.3983242318729
45.32669798785329
54.62347068796625
63.37593523392619
71.64060492333333
79.43685143654238
86.74828197654203
93.53067045669047
99.72446074776296
105.2696721651171
110.1210118527274
114.260922832391
117.7082519573824
120.5205233644912
122.788817104664
124.6260149311314
126.1510971760754
127.4732675107643
128.6793336887472
129.8263707372791
130.9402192192412
132.0193855281843
133.0432910976958
133.9833022968538
134.8144984272626
135.5257871462625
136.1259955682541
136.6442818513481
137.1246732092977
137.6162277380689
138.1614554485485
138.7857885487603
139.4902778663365
140.248829750362
141.0104825891806
141.7064487575313
142.2608685446377
142.6034696932177
142.6817133390689
142.4698032435907
141.972485028566
141.222896917053
140.2753363073425
139.194963927162
138.0468452406454
136.8865075899488
135.753691174214
134.670318462573
133.6429016012198
132.668710682998
131.7441440310908
130.8730139367974
130.0721854448543
129.3725752998721
128.8149859998424
128.442016510602
128.2884515416511
128.3726310426835
128.6906662349643
129.2145983721686
129.8949290915316
130.6672982577707
131.4623828920917
132.2173470471094
132.8864656535278
133.4482132754781
133.9066621170384
134.286598071901
134.6237145105374
134.9526091518491
135.2955747289018
135.6546056140197
136.0081964398683
136.313633419771
136.5145539735097
136.5525954171659
136.3810325440015
135.9775044260183
135.3525790138077
134.5515242308051
133.6484073896257
132.7339012234729
131.8998710723007
131.2242999813679
130.7595620373629
130.5260791679271
130.5123556883005
130.6813257090021
130.9818721526582
131.363303848115
131.7896025449765
132.2497681611164
132.7612141614152
133.3651083016279
134.1151251062458
135.0630288955793
136.2450164665294
137.6720136629338
139.325904146074
141.1624527574305
143.120514774753
145.1359771866642
147.1577916697948
149.1625156414182
151.1633543403338
153.2104477420434
155.3813357905063
157.7634461955604
160.4327504365505
163.4335265974449
166.7635649664615
170.3678190038552
174.1419068799252
177.9451860450015
181.6215114390302
185.0243283708776
188.0414554657285
190.6141591197527
192.7457318384739
194.4971936293672
195.971200718867
197.2882785822446
198.5610218531694
199.8718565757745
201.2588381295027
202.7121766139847
204.1820382928824
205.5960203887701
206.8827514727399
207.9963738490753
208.9356403044644
209.7519736801057
210.5436433750801
211.4373527411628
212.5621582377549
214.0223527569967
215.8756455173359
218.1213886014235
220.7013823433637
223.5133192494751
226.4345364861209
229.3516077891199
232.1894382591501
234.9324463296641
237.6313034790614
240.3922309539869
243.3509924007021
246.638179605796
250.3443850230466
254.4932865512711
259.0285313600942
263.8174401366222
268.6713859621536
273.3796287755512
277.7506753006313
281.6529548858845
285.0453273930902
287.9890176319633
290.6368176025034
293.2016440135824
295.9121082692971
298.9655182247386
302.4884514573521
306.5127580227837
310.9715229098098
315.7157106413338
320.5484521591394
325.2705254095042
329.727591594137
333.8478980203122
337.6601092277755
341.2856858631977
344.9074467979122
348.7225390883976
352.8915407229906
357.4954583457164
362.5099733646667
367.8024504853677
373.1526918432521
378.2939546316301
382.9667819693347
386.9747694188306
390.229257523285
392.7709776601831
394.7620476815827
396.449907690312
398.1123362725389
399.9968286611909
402.2678882547286
404.9732305582343
408.0355974716163
411.2716886204691
414.4345847152039
417.2715265521854
419.5850641495542
421.2831890663721
422.4051442484181
423.1154225699475
423.6673413861428
424.3457556858179
425.4030052568976
427.0025965129032
429.1824792778794
431.8452118207765
434.7767617428266
437.6902391451387
440.286126759285
442.3165735722235
443.6388314359512
444.2440345291028
444.2535017537846
443.8837944985333
443.3900632597975
443.0018788814817
442.8663075999795
443.0104487389974
443.3310275550097
443.6128758597822
443.5724594825828
442.9178399453649
441.4126520786723
438.9294701805875
435.4791944840628
431.2089008848245
426.369180355388
421.2597851336633
416.1668416590036
411.3056160271325
406.7806447244752
402.5708049314121
398.5414908093186
394.4807129684196
390.1514852562364
385.3493747037082
379.9520883785345
373.9490663250959
367.44411096399
360.6314680441557
353.7524349891095
347.043455825398
340.6874925141445
334.7788264799803
329.3079611002413
324.1687550659584
319.1854289115078
314.1533948778745
308.8850107223256
303.2497464151057
297.1991539539272
290.7710798903452
284.0733705761614
277.2524876351762
270.4554545808826
263.7942246169507
257.320302712528
251.014700463174
244.7946755484582
238.5351561019104
232.0999505680832
225.3758466001523
218.3017138631655
210.8855943830251
203.2058858071407
195.3970242406389
187.6238112739458
180.050673433993
172.8126080284536
165.9936415982541
159.6166263914484
153.6456017719964
147.9994100103792
142.5732228751106
137.2631525500253
131.988379481109
126.7058286367464
121.4145634903333
116.1499330240097
110.9699505904379
105.9378153929891
101.1048850775887
96.49789768311796
92.11297859526543
87.9172596938838
83.85724154525892
79.87169427849045
75.90600438322096
71.9245395118602
67.91811589528126
63.90504583320738
59.92597365426291
56.03412793959442
52.28346305147956
48.7174269643609
45.36077764803485
42.21604622216778
39.26513296125783
36.47541139005932
33.8088099671156
31.23172231357065
28.7233870302393
26.28077390617949
23.91898554518449
21.66734127363363
19.56225659493202
17.63863549148266
15.92172739607912
14.42121483911212
13.12873690963149
12.01928878855126
11.05613836373378
10.19817017790348
9.40799989062119
8.65897523738801
7.939472896643839
7.253649727124449
6.618677798780565
6.059212805922824
5.600364075826585
5.260718112097869
5.046913601757371
4.950871001288622
4.950180381210341
5.011486254848165
5.09607202727633
5.166350223358386
5.191766391765856
5.152839300521843
5.042595858335056
4.865258131008127
4.632556328510461
4.358512994931235
4.05393642226101
3.721989847237682
3.355954957455449
2.939760195368177
2.451159443346489
1.866788626656472
1.167850304844092
0.3450255531045375
-0.5985308470532475
-1.646704241495567
-2.77245983176903
-3.941982669481649
-5.120127105246781
-6.27607479470267
-7.387987475050402
-8.445637145660628
-9.450446918033089
-10.41295807639369
-11.34835091656369
-12.27115887436557
-13.19052765535799
-14.10713428456355
-15.01230120734082
-15.88924773823069
-16.71604286874657
-17.46960944067427
-18.12996646962792
-18.6838216827829
-19.12673720636161
-19.46339574669787
-19.705933837151
-19.87080453578106
-19.97505019678879
-20.03301509897949
-20.05429346155183
-20.04321812044443
-19.99975449428699
-19.92144962208753
-19.80599321442287
-19.65382261026151
-19.47008736916994
-19.26533435609621
-19.05453649785413
-18.85449864190482
-18.68012265565692
-18.54037978924374
-18.43498000037026
-18.35255745561811
-18.27080338405117
-18.15860128152293
-17.9799573227659
-17.69925331347082
-17.28700575144761
-16.72505022802087
-16.01008363875475
-15.15480085125084
-14.18635032170191
-13.14241029359945
-12.0657406980092
-10.99840634962063
-9.97684080853985
-9.02859219240514
-8.171193873827068
-7.413243475927862
-6.75735531616375
-6.204152510536274
-5.756109284167987
-5.420078280529061
-5.207737079803307
-5.133775522858032
-5.212241086986489
-5.451947769197432
-5.852118184801038
-6.39936429455872
-7.066765266677858
-7.815364409515068
-8.597984202635022
-9.364789734087918
-10.06954517586056
-10.67523527078521
-11.15784471264034
-11.50753894618175
-11.727083561613
-11.82794341953868
-11.82503187536284
-11.73140348376164
-11.55416065766917
-11.29249342952107
-10.93827018766525
-10.47906541808057
-9.902947349063671
-9.203843521315337
-8.386085408811343
-7.466934652505638
-6.476415915961608
-5.454426433756542
-4.445701708159406
-3.493694701142322
-2.63468485713097
-1.893385291394733
-1.28097268693348
-0.7959571356759104
-0.4277350656561063
-0.1620476684902942
0.01297956572445497
0.1017664810059971
0.09848520917879808
-0.01276589539023414
-0.254879747319735
-0.6524511155208957
-1.22541531867128
-1.982958491868108
-2.91899792323882
-4.010224293232756
-5.217204093552599
-6.48844057422291
-7.766643060743361
-8.995907558836782
-10.12829278237633
-11.12849366051043
-11.97587167887304
-12.66378264875741
-13.19674050171483
-13.58635801766493
-13.84717866672986
-13.99343664425346
-14.03747020377218
-13.99005988784983
-13.86247004736967
-13.66950831582326
-13.43258274369271
-13.18165869983918
-12.95526553899109
-12.79822547882937
-12.7573940714337
-12.87618368673639
-13.18887674927105
-13.71576449297276
-14.46002208304766
-15.40695950267132
-16.52589099503883
-17.77438523328164
-19.10415903497069
-20.46749648115676
-21.8229670010615
-23.13943245587883
-24.3978036118117
-25.59057044149995
-26.71959186326615
-27.79287551673597
-28.82113098755481
-29.81480475364303
-30.78213021171937
-31.72846316863764
-32.65684201850473
-33.56937255246498
-34.46880766350287
-35.35967006031045
-36.2484598633575
-37.14284027245459
-38.05007977881312
-38.97527292903548
-39.91987383543437
-40.88093405331683
-41.85125689956843
-42.82050062264815
-43.7770692293278
-44.71043436501727
-45.61339992848452
-46.4838236406768
-47.32544268006215
-48.14765528644357
-48.96435309914148
-49.79213660582096
-50.64837327410829
-51.54950703600734
-52.50985844732821
-53.54097151767086
-54.65141370025413
-55.84682706896656
-57.12998237306594
-58.50063673932174
-59.95513070916473
-61.48580852961572
-63.08044679709217
-64.72193619956593
-66.38848354959676
-68.05454198415347
-69.6925152783022
-71.27507022700907
-72.77769598512285
-74.1810042126878
-75.47220890259089
-76.6453449609401
-77.70012521063869
-78.63977251074209
-79.46846465073864
-80.18907892779018
-80.80179468726602
-81.3039160603631
-81.69104087276853
-81.95941356563684
-82.10899208455447
-82.14650495033759
-82.08764081704297
-81.95756194617393
-81.78925293675186
-81.61981039603955
-81.48541711475563
-81.41610017142033
-81.43135378546636
-81.53747531235845
-81.72715048668408
-81.98142854075475
-82.27375342894351
-82.57526908403794
-82.86032062789519
-83.11098638371152
-83.31962015578559
-83.48881368976267
-83.62888265286894
-83.75367440623843
-83.87585203996566
-84.00275739291159
-84.13369388632405
-84.2591472649968
-84.36207156351585
-84.42091118802739
-84.41362177057913
-84.32173340677782
-84.13352526439712
-83.84562113289225
-83.46272798062455
-82.99574934588865
-82.45893394451817
-81.86687666883574
-81.23206341357265
-80.56339502511572
-79.86585967525153
-79.14126198308922
-78.38966206036787
-77.6109927694228
-76.80630284656411
-75.97824633661197
-75.13072988489942
-74.26791753725847
-73.39298180982954
-72.50703182663378
-71.60855551089128
-70.69355058417887
-69.75635273644164
-68.7910093295049
-67.79288487098651
-66.76005554611709
-65.69403907685245
-64.59958674013119
-63.48361467802719
-62.35371986545576
-61.21690484976837
-60.07901266434644
-58.94503199262753
-57.82008329979362
-56.71070121932161
-55.62600066784709
-54.57836976309002
-53.58339712284703
-52.65881403447121
-51.82237732511097
-51.08889650200624
-50.46698758543683
-49.95644360617443
-49.54710055552205
-49.21964452626468
-48.94816463399259
-48.70377600002456
-48.45850070680352
-48.18871281065608
-47.87764588043466
-47.51661635107592
-47.10473840634832
-46.64709057228922
-46.15162466510191
-45.6255453213285
-45.0722282945813
-44.48970456863648
-43.87120489238092
-43.20749805131004
-42.49020598368716
-41.71515217906824
-40.88498300769869
-40.01056809305113
-39.11088995099173
-38.21128177282622
-37.34008312321239
-36.52415042814861
-35.78413574206217
-35.13080952578292
-34.56362473052354
-34.07204941796833
-33.63923030433187
-33.24683826504123
-32.87978537261543
-32.52977851712033
-32.19709862748206
-31.89033516802025
-31.62401625813976
-31.4143035975888
-31.27334145269333
-31.20344702951384
-31.19281903786193
-31.21437070510223
-31.22843482337543
-31.18881154898738
-31.05065086117517
-30.77836752959148
-30.35202804268012
-29.77109584126819
-29.0548670226694
-28.23935100514834
-27.37085631660614
-26.49723215994754
-25.65852308540537
-24.87937653796653
-24.16538639048041
-23.504421432907
-22.8723590004983
-22.24141453324088
-21.58890102206373
-20.90456181917196
-20.19516903988336
-19.48561686938417
-18.81623721935329
-18.2366231746042
-17.79694840145277
-17.53854817479655
-17.48607078225997
-17.64334940328757
-17.99406326571314
-18.50669672192151
-19.14210859421252
-19.86167087826362
-20.63426231303043
-21.44097171748552
-22.27686480774559
-23.1495499583703
-24.07469686228511
-25.06925902519004
-26.14386802461528
-27.29639519730142
-28.50857581205282
-29.74667070367845
-30.96580957377903
-32.11665648180553
-33.15274107768087
-34.03702116477788
-34.746615307623
-35.27497631922316
-35.63109540869837
-35.83575419274476
-35.91544955377383
-35.89532903622722
-35.79301002400803
-35.61509103850549
-35.35729781949389
-35.0079332960861
-34.55334069735039
-33.98380916049209
-33.29857264396205
-32.50893485292502
-31.63890405959047
-30.72304008202984
-29.80161681950081
-28.91379604136745
-28.09024870218015
-27.34724817144376
-26.68419665811557
-26.08555966731113
-25.52669330683239
-24.98189851982563
-24.43268254364182
-23.8744637636404
-23.32043158594854
-22.80175628582227
-22.36383385838337
-22.05884794867136
-21.93570938452317
-22.0293220492228
-22.35179245989938
-22.88809600240201
-23.59752087594602
-24.42041351742659
-25.28834033077976
-26.13530714312654
-26.90791272520596
-27.57279407503049
-28.12021658556436
-28.56317501192759
-28.93200095176264
-29.26530724176559
-29.59909781001432
-29.95671111077318
-30.34234899260449
-30.73988392876873
-31.11687202747758
-31.43223137008109
-31.64546494474498
-31.72542640473537
-31.65701331572003
-31.44461432193209
-31.11162974078913
-30.69599592895588
-30.24243143936265
-29.79304407346337
-29.37870015515644
-29.01361719061529
-28.69464981527874
-28.40510654106488
-28.12159403715081
-27.82188519411064
-27.49197537799519
-27.13092023365121
-26.75251345579634
-26.38333699719407
-26.05727655040962
-25.80733308655558
-25.65644077018588
-25.60970613597501
-25.65045263281467
-25.74136613920904
-25.83035249989478
-25.85938797505963
-25.77418504113322
-25.53270585540523
-25.11102154724767
-24.50551849303779
-23.7309739726438
-22.81465535814688
-21.78744057266977
-20.67395694820463
-19.4845021038241
-18.2113821808597
-16.83093659263203
-15.3105218537073
-13.61824264781813
-11.73280314996039
-9.651205447290113
-7.392659337548912
-4.99776374003982
-2.52275309583844
-0.02944116775698374
2.427483193829557
4.813024905212314
7.120753437096845
9.37479373188055
11.62371468662934
13.92780524839649
16.34316683261643
18.90648491161242
21.62370494523648
24.46482348048647
27.36595319676082
30.23876166592343
32.9862073897115
35.52208855611396
37.79036709998272
39.77913508657094
41.52459096885836
43.10313782347109
44.61358954694801
46.15429587598808
47.80068252573438
49.58782995102851
51.50127415492529
53.47771183212989
55.41581067488443
57.19574797655824
58.70429142835948
59.86030103255336
60.63418706856591
61.05545126028386
61.20573234022594
61.19945196183198
61.15761060751561
61.18119549681266
61.32971874701052
61.60877336495552
61.96874367878655
62.31503017465374
62.5282929605468
62.49122826704249
62.11640195118331
61.36834629665205
60.2737503626218
58.91686530066417
57.42191517408134
55.92779571195168
54.56133716180867
53.41456898568941
52.52991781994666
51.89564847843187
51.45219451878061
51.10827059840506
50.76377482357832
50.3345960925739
49.77314615648517
49.07890259631144
48.29616184601539
47.50041207622206
46.77792410739304
46.20409369514066
45.82531003904901
45.64772448400393
45.63481076382427
45.7141657601021
45.79252307451615
45.77632502700066
45.59349527436627
45.21085496421345
44.64203498311847
43.9434072699616
43.19944610804109
42.50189939272568
41.92804669581062
41.52263877670091
41.2868111910575
41.17585790039328
41.10635235560572
40.97164925224521
40.66319070758401
40.09335418939677
39.21437610143013
38.02822483237902
36.58481086771758
34.96962454299105
33.28475253296277
31.62814045696912
30.07540657589852
28.66737803005371
27.4052947364652
26.25440149605656
25.15535640916184
24.04141486339275
22.85774988810521
21.57804575107058
20.21365374044276
18.81275503689057
17.45026377161808
16.21177442516325
15.17572088066222
14.39750174981953
13.89842730173938
13.66133394372732
13.63365663234389
13.73760058835902
13.8857204105253
13.99872553406755
14.02114336380829
13.93053160503642
13.73785003297834
13.4795814363263
13.20451452344661
12.95885898126081
12.7729747257804
12.65220348426331
12.57342653142641
12.48806833383814
12.33125648431658
12.03565043138048
11.54709963049654
10.83820311903713
9.915881543862751
8.820803466803067
7.619200038845513
6.389688005311569
5.208389784426892
4.13529011252318
3.204074395987854
2.416964246415143
1.745336047308347
1.136100388771976
0.5228222799816761
-0.1606149604908916
-0.9669964873886897
-1.926698687391783
-3.044549807851239
-4.302552785990038
-5.666771128824085
-7.096151345227096
-8.551296874418217
-10.00166668153904
-11.43010347663646
-12.83401405064893
-14.22302874787056
-15.61363943669241
-17.02211004146935
-18.45760016172181
-19.91748678833138
-21.38607335723339
-22.83664607657908
-24.23592389246706
-25.54967483181942
-26.74839928107448
-27.81219778278885
-28.73413390987389
-29.52158789737564
-30.19534485945731
-30.78654551394103
-31.33212343480358
-31.86977109595728
-32.43354021820082
-33.05079304627586
-33.74064903299251
-34.51369762291684
-35.37266941714762
-36.31381080773781
-37.32873874858441
-38.40651066970888
-39.53555353248448
-40.7050555422877
-41.90553989911351
-43.12860117110469
-44.3660433076991
-45.60875527430117
-46.84559162139279
-48.06244850498098
-49.24174792946401
-50.3625846287346
-51.40173393993879
-52.33556197802776
-53.14266952871295
-53.80687565551635
-54.31998222817759
-54.68375222451873
-54.91067798465383
-55.02329976345238
-55.05200458567467
-55.03146306466098
-54.9961877631607
-54.97598813832339
-54.99217499816451
-55.05520999230589
-55.16421313604602
-55.30841201277685
-55.47026187354732
-55.62964503260451
-55.76835814446012
-55.87402856957269
-55.9426261005277
-55.97891524674063
-55.99465194221825
-56.00498870119576
-56.02408046351012
-56.06102021357244
-56.11702485850231
-56.18442908725102
-56.24763841413482
-56.28578075037952
-56.27645296958846
-56.19977262943038
-56.04190975387372
-55.79732911202787
-55.46916892221569
-55.06763159118774
-54.60687452681094
-54.10134430562641
-53.56257348479486
-52.99721144135863
-52.40666794686216
-51.7883448503094
-51.13809102603773
-50.45329048301249
-49.73590758290793
-48.9948254616199
-48.24687175723356
-47.51609973430063
-46.83130363504274
-46.22229687206549
-45.71586186252253
-45.33231021114094
-45.08335821429453
-44.97168415801912
-44.99217169100042
-45.13450169293085
-45.3864992523453
-45.73751901751963
-46.18112282203925
-46.71632712867943
-47.34689080311271
-48.07862794330445
-48.91541513069024
-49.85501186259137
-50.88581804679956
-51.98539559212057
-53.12118900230612
-54.25346258952013
-55.34004330746393
-56.34208284710967
-57.22980665196231
-57.98710256774557
-58.61382202174316
-59.12498268937273
-59.54682337287161
-59.91062796048767
-60.24587441319591
-60.5743048054766
-60.90611839147632
-61.23893784038547
-61.55963427984302
-61.84856865621057
-62.08536287276073
-62.25500711599057
-62.3529500717128
-62.38783839273992
-62.3809498772404
-62.36224044953559
-62.36401040141394
-62.41390076995975
-62.52896407615692
-62.71211537432046
-62.95167883259154
-63.22414472284031
-63.49966236276258
-63.74926121240259
-63.95239420424117
-64.1031709290886
-64.21364873423987
-64.31298624944225
-64.44229137006785
-64.64629271211251
-64.96386231621042
-65.41955724257252
-66.01791002385878
-66.74152512270167
-67.55331695284282
-68.40251392862298
-69.23339994654097
-69.99522078655858
-70.6512799393925
-71.18509810220235
-71.60191481288796
-71.92498155453754
-72.18766598521846
-72.42355235046136
-72.65700387410402
-72.89622257278697
-73.13011726069051
-73.32951749554493
-73.45251214014183
-73.45297253696128
-73.2906848216652
-72.94100392336586
-72.40168844112974
-71.69492690396014
-70.86377861959734
-69.96395002205375
-69.053130985123
-68.18048124674146
-67.37846787448372
-66.65855748611516
-66.01148791261774
-65.41201608092967
-64.82721766682194
-64.22669844064174
-63.59252308158139
-62.92638843931092
-62.25190003915726
-61.61102823359842
-61.05557181589542
-60.63586357670281
-60.38944500708212
-60.3321545454436
-60.45340758968216
-60.71660416237339
-61.06466363357416
-61.42976951721396
-61.74561081748559
-61.9597557110847
-62.04340552828801
-61.99603654568023
-61.84367394425961
-61.63140360309556
-61.41226290169087
-61.2352258635778
-61.13476644600431
-61.12390041850352
-61.19188548350233
-61.30692469835416
-61.42333381666844
-61.49179265460889
-61.47054262991207
-61.33485514029862
-61.08220794790928
-60.73174956700653
-60.31846409219659
-59.88399173171039
-59.46663947850216
-59.09286447083809
-58.77189896240417
-58.49447576169614
-58.23585938310441
-57.96262316709654
-57.64187659527012
-57.25095591670947
-56.78508974933282
-56.26067733091507
-55.7129468197768
-55.1885484067034
-54.73512411620296
-54.39045163845926
-54.17352393294628
-54.079323255502
-54.0783032586524
-54.12077013049647
-54.14551863484022
-54.09128231310032
-53.90880518475362
-53.57078581960277
-53.07706044146609
-52.45358646221353
-51.74567970901573
-51.00751616045336
-50.29049231384479
-49.63286021259638
-49.05256854823258
-48.54459579128386
-48.08323620931585
-47.62889098549708
-47.13806596196461
-46.57452052901542
-45.91895157235162
-45.17465063118518
-44.36763819481693
-43.54152751775553
-42.74884262055674
-42.04108990727352
-41.4597233786699
-41.02966676886289
-40.75644929672372
-40.62732102239041
-40.61601914727883
-40.69021200102192
-40.82002233604194
-40.98550618561632
-41.18093505143827
-41.41459079140315
-41.70428169270001
-42.07008791921921
-42.5263687731095
-43.07491732055629
-43.700691931999
-44.37098817458213
-45.03829932370561
-45.64649867846429
-46.13938155121183
-46.4700003895931
-46.60871102233392
-46.54782527394876
-46.30162130994186
-45.90193606507812
-45.39081948621244
-44.81220564698486
-44.20436934729343
-43.59446770291228
-42.9959335174815
-42.40895434499821
-41.82376531151149
-41.22600404442923
-40.60289124207191
-39.94859586257532
-39.2671579246722
-38.5720741424416
-37.88284426456421
-37.21972559786463
-36.59822802919728
-36.02466069824189
-35.49364658951038
-34.98809351801452
-34.48165253147289
-33.9432415650455
-33.34282496470939
-32.65732538701243
-31.87533984171967
-30.99944620812984
-30.04551063161043
-29.03932276299566
-28.01156979926236
-26.99233418526766
-26.00613355011168
-25.06827995380259
-24.18308356628065
-23.34411332131499
-22.53637404263517
-21.73994309269446
-20.93434929804485
-20.10278159102861
-19.2352130683837
-18.32985577744467
-17.39290664784305
-16.43698510410037
-15.47881844864946
-14.53669074127118
-13.6280824176981
-12.76782757896888
-11.96698262780644
-11.23245577324161
-10.56733188036893
-9.97172725874061
-9.4438936795915
-8.981204754866134
-8.580697011362984
-8.239020590899377
-7.951869399268851
-7.713087200593717
-7.513681399457079
-7.340982815944205
-7.178177099563605
-7.004375727264033
-6.795314999208625
-6.524715852807631
-6.166291363610567
-5.696283941600475
-5.096214257264828
-4.355312667573035
-3.472058169575273
-2.454441048881378
-1.318856023854899
-0.08776961990539545
1.213521920881694
2.560593424651437
3.933523104382295
5.319905795065911
6.716687332543033
8.130283475768731
9.57461372175354
11.06711586358339
12.62344813194913
14.25208654955353
15.95007104784496
17.70080511690456
19.47433605450386
21.23009070591899
22.9216669378904
24.50300993882709
25.93509718991936
27.19206190947415
28.26554275867328
29.16613067806466
29.92131875923557
30.57034040047915
31.15723542775116
31.7238644431447
32.3043419349202
32.92181279072602
33.58793186510115
34.30493549930939
35.06983017118512
35.87989133704374
36.7382948534838
37.65835396672596
38.66475662683477
39.79076579117257
41.0716437709606
42.53597632528296
44.19725851959004
46.04786589428564
48.05680451575915
50.17182209161658
52.325723150608
54.44608726512261
56.46699675161033
58.34079878603934
60.04743889629682
61.59881499411138
63.03639426025732
64.42214999517834
65.8249614596228
67.30584476319403
68.90534097278616
70.635513121294
72.47785643214146
74.38733256349123
76.30180933285293
78.15535156779335
79.89297105384819
81.48369464943907
82.92854541880462
84.26087283461636
85.53863197321769
86.83081311826987
88.20184767661736
89.69789609324785
91.33796141058706
93.11146040569737
94.98259714411577
96.90073238929662
98.81489160989281
100.6895629093433
102.5181091663355
104.3298649943578
106.1880261230509
108.1780617182991
110.3895409495244
112.8962186279621
115.7392419974077
118.9170207404851
122.383489551955
126.0546720877831
129.8218662054234
133.5685369327151
137.1871695288108
140.5919043034671
143.7229546862408
146.5402584819832
149.0069034088536
151.0664871815551
152.6207279432058
153.5134802781353
153.5255534993727
152.3823804598687
149.7741960969069
145.3862256449083
138.9346436277689
130.202815908948
119.0715109122826
105.5365730886123
89.70888755045488
71.79498230576245
52.06120202211502
30.78779675577293
8.22044487811883
-15.47356332133967
-40.23785006618287
-66.1419537130836
-93.37313531660288
-122.2011993335889
-152.9171444409981
-185.7536633063987
-220.8026079804345
-257.9476882467972
-296.8280171798713
-336.8414033774689
-377.1889503596655
-416.9564599512391
-455.2230038973732
-491.1820067323919
-524.2552806082068
-554.176907815284
-581.0246784253919
-605.1855071216307
-627.2577539181066
-647.9114432377235
-667.7386391550465
-687.1266533086225
-706.1787694213599
-724.6960174373655
-742.222465247452
-758.1458970800022
-771.8356763703143
-782.7910850865022
-790.7680360359858
-795.8524535378816
-798.4584354640054
-799.2487803734306
-798.997796269983
-798.431406600762
-798.0819137086148
-798.1868075341309
-798.6489918027104
-799.0636644378358
-798.8053689917286
-797.1579405016566
-793.4617985404197
-787.2484161849354
-778.3320987163914
-766.837109095259
-753.1546004345951
-737.8437636613161
-721.5060549248133
-704.6644041984789
-687.6725993786486
-670.669626872581
-653.5835010453301
-636.1795879820031
-618.1403603288036
-599.1583317249246
-579.0217159925232
-557.6730689113555
-535.2265785763452
-511.940986863631
-488.1590605090616
-464.2341830194803
-440.4652548969107
-417.0543904180965
-394.0933988846892
-371.5779489736479
-349.4426952225622
-327.606854104442
-306.0186017391619
-284.6875803661935
-263.6968926910649
-243.1902057390293
-223.3369317558806
-204.2866803952635
-186.1284122518052
-168.8669194776258
-152.421700392605
-136.6461068270031
-121.3603282431984
-106.3896573817995
-91.59907050361427
-76.91661529051312
-62.34066439939286
-47.92892360852611
-33.77071065532588
-19.94905113587794
-6.50398058074159
6.590474940734633
19.42792590088925
32.15021663534858
44.91379098264409
57.8511666113483
71.03667815827124
84.46405940173383
98.04076517367342
111.6006570648998
124.9333461921499
137.8250210365589
150.1018633419922
161.6643919982419
172.5019753026937
182.6828278181389
192.3233996345887
201.5471779736289
210.444267082031
219.0411778516327
227.2871267802225
235.0596665338087
242.1888788203131
248.495870591723
253.8380960187745
258.151272972374
261.476301651377
263.9617310542215
265.8391779595045
267.378034630164
268.8318184324478
270.389289324041
272.1405770758188
274.0644426287579
276.0386373792429
277.871396229754
279.3484685040647
280.2868612125623
280.5838701993191
280.2489173323692
279.4082526817744
278.2799228305857
277.125833414609
276.1940974101338
275.6657244910302
275.6167215107885
276.0023889837925
276.6662419677966
277.3718102536732
277.8516758240816
277.8646687799961
277.2494259323826
275.9613839695718
274.0827341850115
271.8021271739285
269.3703401599802
267.0445938290442
265.0352481215066
263.4658121291635
262.3531146719155
261.6103377763521
261.0716565076412
260.5335293089089
259.8044236648173
258.7521948799683
257.3372452385343
255.6218055607856
253.7523368402598
251.9207261620854
250.3159107779308
249.0784776933769
248.2681273996994
247.8500381704495
247.7022621438859
247.6425291347683
247.4693428363567
247.0092933807962
246.1603496221339
244.9201793559531
243.3908565865859
241.7576566856171
240.2477815447411
239.0804077339372
238.4202369110088
238.3441355561194
238.8267297996069
239.7470348397195
240.9145177220752
242.1095497103118
243.1303149998907
243.8361889606508
244.1769583673297
244.1994879341952
244.0295110900914
243.834059842798
243.7754537694075
243.9685768424705
244.4506440816497
245.1689988934311
245.9887956214991
246.7188918017116
247.1509945750485
247.1043787490151
246.4666167606922
245.2202626877959
243.4476455028347
241.3117504021838
239.0186449053649
236.7720513308224
234.7313872675988
232.9820800750433
231.5233442152868
230.2749873435303
229.1013741906582
227.8475599260734
226.3801647423452
224.6240796888023
222.5859334606644
220.3574678282764
218.0973152007638
215.9963966908039
214.2367063007959
212.9537836758197
212.2108270970454
211.9890686232085
212.1956370514775
212.686831776822
213.3017729142976
213.8992767452591
214.3898166303756
214.7547311978337
215.0471599928563
215.374080065714
215.8647434861055
216.6346681053472
217.7545282825387
219.2308768216024
221.0023642918505
222.9518518652302
224.931675393238
226.7965842213737
228.4371291812741
229.8058381482184
230.9294151433308
231.9028608906338
232.8661878405576
233.969836296281
235.3381714177786
237.0401643958817
239.0735921711252
241.3655725478073
243.7888630735338
246.1902391469605
248.4247031528594
250.3879120864084
252.0394204874816
253.4109599494457
254.5970458079403
255.7297848255222
256.9445651858946
258.3459501907245
259.9823959526755
261.835363360137
263.8246948003337
265.828695998024
267.7143361591006
269.3706223122532
270.737288015163
271.8219208065572
272.7011478637119
273.5050346063568
274.3881550664402
275.4947616190614
276.9272417822457
278.7257562458654
280.8635871576317
283.2588877535894
285.8000689927288
288.3790713791745
290.9245736342742
293.426741693299
295.9469551632672
298.6094144288591
301.5756999659786
305.0076772518082
309.0276251458351
313.6855641323633
318.9418461143951
324.6691625400731
330.6738329157755
336.7324090332278
342.6363342573367
348.235002809415
353.4671979625438
358.373185671732
363.0839375584276
367.7889520515589
372.6892929088114
377.9466207616162
383.6403332611002
389.7426975688716
396.117263864558
402.5407972636386
408.7444543776106
414.4659811170242
419.5017343079473
423.7466969541985
427.2131757684073
430.0236734834833
432.379194078827
434.5101657340456
436.6219208844168
438.8481907074785
441.2235077641382
443.6801670397928
446.0697007475986
448.2038700772901
449.9059980666054
451.0604880909255
451.6481161470283
451.7580609432782
451.573480509174
451.3337880076774
451.2823885915728
451.6124449285225
452.4238424171727
453.7014304916835
455.3191211106886
457.0686109001799
458.70653862914
460.0098276849142
460.8262551361215
461.1075930005691
460.9169570237614
460.4088230937678
459.7869417359409
459.2504507521908
458.9411238332411
458.9042784844343
459.0722976269525
459.2741513875926
459.2686352345237
458.7943953259833
457.6261393405997
455.6240879081113
452.7643650715641
449.1426728473201
444.9507095605658
440.4315278400985
435.8245676175678
431.3129509131432
426.9846713941135
422.8157047824096
418.6778263921385
414.3687149371493
409.6577477230417
404.3376506017599
398.270159698936
391.4146347222381
383.833069220188
375.6716249613866
367.1247889100106
358.39169524825
349.6349369439316
340.9507912702825
332.3566018290879
323.7968296638588
315.165247635205
306.3376834413912
297.2074812788538
287.7146723527979
277.8610335420575
267.7075109998984
257.3563317518773
246.9245948680359
236.5174373399647
226.2075043375599
216.0249478144619
205.959399090779
195.9725712858055
186.0178413570997
176.0617399838181
166.1015764478083
156.1735754300493
146.3478834183356
136.711087615314
127.3419069335881
118.2885058201047
109.5547061461282
101.0984606978172
92.84204405510457
84.69090751435523
76.55672864625842
68.37951642692293
60.1437514747327
51.88430945929334
43.67935848752483
35.630147639448
27.83185119862158
20.34391279425666
13.1697506254088
6.252522755193874
-0.5123255338210451
-7.252096379034351
-14.08614863602481
-21.09646112991803
-28.30570159716339
-35.66761266807647
-43.07254721501437
-50.36853729787829
-57.39502047035246
-64.02220031753762
-70.18539734829194
-75.90348162215112
-81.27524391872903
-86.45516756557865
-91.61604915076107
-96.90804125440923
-102.4230103320928
-108.1712590525083
-114.0752829144007
-119.9824588700448
-125.695427288758
-131.0152496991956
-135.7882955982016
-139.9446220365806
-143.5161255653179
-146.6285920152357
-149.4704797693017
-152.2478972894418
-155.1372541298185
-158.2457214079824
-161.5870115819172
-165.0769971111512
-168.5504686329992
-171.7968243545149
-174.6085615417764
-176.8323169462859
-178.4092822955637
-179.3928326050132
-179.9377175901065
-180.2645227097867
-180.6100649822764
-181.1762947815529
-182.0885227974204
-183.3707231982089
-184.9423377242437
-186.6375259038772
-188.2440682722269
-189.5550569296366
-190.4223630402045
-190.7980553394073
-190.7511990909231
-190.4543917815544
-190.1442368660274
-190.0672529590817
-190.4246831575222
-191.3277901824892
-192.7719675729419
-194.6344250745629
-196.696376293337
-198.6865193244678
-200.338215730363
-201.4484800903746
-201.9240925559384
-201.8015915156257
-201.2352015169733
-200.4570393622664
-199.7215417131859
-199.2480769304037
-199.173709901702
-199.5247111917399
-200.2117665212036
-201.0499648888332
-201.8004326074778
-202.2260178917551
-202.1491007551263
-201.4968227649249
-200.3205359284835
-198.7836257381045
-197.1221545903108
-195.5903103056316
-194.4045671136877
-193.6983537673257
-193.4955159988988
-193.7071526017803
-194.1525795802097
-194.6011133498903
-194.8270578962569
-194.6660789908506
-194.058476529247
-193.066450507425
-191.8598293865381
-190.6749600670162
-189.7588914881068
-189.3128212034777
-189.4466365481818
-190.1528833295386
-191.3047657840945
-192.6788755315909
-193.9991809488586
-194.9944456577134
-195.4570631955841
-195.2886879159057
-194.5196800532454
-193.296770677659
-191.8435692494329
-190.4059428740454
-189.1960913602832
-188.3469538178427
-187.8850795797202
-187.726468934608
-187.6961734334498
-187.5684728554084
-187.1202203011968
-186.1858432250899
-184.6998966223107
-182.7146154440787
-180.3870885099822
-177.9406172693749
-175.6120098370436
-173.5982615537453
-172.0138793353908
-170.8666152916347
-170.0557631460964
-169.393518363723
-168.6460684353248
-167.5870482908944
-166.0520989834718
-163.9808302740252
-161.4340423487106
-158.5810278092066
-155.6613757864089
-152.9326201117655
-150.6167315085526
-148.8564181900449
-147.6889324141713
-147.0416521768445
-146.7501814274421
-146.5959834331271
-146.3566305043496
-145.8579258629325
-145.014706098736
-143.8485443550143
-142.4772505134048
-141.0803121328776
-139.8510715985953
-138.9480021222036
-138.4554724535553
-138.3612599433639
-138.5547997978282
-138.8467922824374
-139.0072078436712
-138.8149103520423
-138.108365617906
-136.8245037487607
-135.0142237729922
-132.8296476202041
-130.487382525678
-128.2186402057848
-126.2186300426588
-124.6056915538915
-123.3974810900608
-122.5081979117649
-121.767432664808
-120.9576632859288
-119.8636694119849
-118.32345670796
-116.2679228778678
-113.7378446413955
-110.8731543954716
-107.8783412367492
-104.9742478161364
-102.3481797874466
-100.1125415173718
-98.27936491556386
-96.75503162707501
-95.35627228789208
-93.8450834698266
-91.97649921464246
-89.54944980063482
-86.44844778986042
-82.6648715506073
-78.29247571617186
-73.5000528317458
-68.49028547754111
-63.45553337859521
-58.53993409996666
-53.81479577981448
-49.27165779524524
-44.83463089678396
-40.39057023253127
-35.83211865256166
-31.10482556524059
-26.24662472635836
-21.40837193728343
-16.84935148699883
-12.9094591862267
-9.965755762440299
-8.383098029903994
-8.467807587599433
-10.43163800145546
-14.37128339582554
-20.26625794699813
-27.99497944923546
-37.3652104177744
-48.15107839264604
-60.12621308449513
-73.08335768263164
-86.83610921896519
-101.2058283315769
-116.002022099093
-131.0056542060382
-145.96306722389
-160.5952874063495
-174.6240487067567
-187.8118193547735
-200.0085464163835
-211.1938172522923
-221.5016292395581
-231.2174575033606
-240.7437686492537
-250.5389100511389
-261.0422960113178
-272.602753856076
-285.4258823714222
-299.5518504309151
-314.8687899842691
-331.1594899393348
-348.1711970424673
-365.6913380889565
-383.6081193072581
-401.9367849200949
-420.8006018854088
-440.368160852542
-460.7613800148221
-481.9575369039715
-503.7110152217601
-525.5165179460118
-546.6273085415406
-566.1308504436832
-583.0710868263789
-596.594278386439
-606.0875543415453
-611.2790526420143
-612.2764252292924
-609.5343986438577
-603.7581626015159
-595.7637313838088
-586.3254504353779
-576.0421847868392
-565.2482035406591
-553.9848661378671
-542.0366122078098
-529.0211118342592
-514.5117983669413
-498.1646389880424
-479.8215910185181
-459.5700996658096
-437.7486242048624
-414.8998665496433
-391.6842799089283
-368.7742622496991
-346.7518162117408
-326.0293442776508
-306.8067152520563
-289.0696675428458
-272.6263591964315
-257.1719529114536
-242.3668298485153
-227.9128546779536
-213.6136893789451
-199.4087010160411
-185.3753207140742
-171.7017209947713
-158.6386022670705
-146.4427436591345
-135.324653064026
-125.4096288907195
-116.717748604414
-109.1646464017254
-102.5816165818351
-96.75062330691418
-91.44733878907687
-86.48353723269402
-81.73951847619841
-77.17890011796896
-72.84285520124428
-68.82704395826273
-65.2488340897182
-62.21328580221486
-59.78483305810991
-57.96936798467139
-56.70934220919383
-55.89247773568189
-55.37249017469723
-54.99783919633495
-54.64217508195964
-54.22861610989111
-53.74075406075471
-53.21724734600089
-52.7324467339311
-52.36952659457151
-52.19343720760956
-52.22958314835719
-52.45210595612927
-52.78378774613448
-53.10783641615533
-53.28989053035736
-53.20642134461735
-52.77353473358966
-51.96875131424427
-50.83912173847637
-49.49288388912463
-48.07725146620752
-46.74877088445981
-45.643452635411
-44.85250498915633
-44.407557020221
-44.27748044076459
-44.37722061587021
-44.58718082423852
-44.77964569822611
-44.84670562237049
-44.72282909878584
-44.39590986509511
-43.90405844735739
-43.32023372243048
-42.73026510548048
-42.21048534879736
-41.80987739933347
-41.53980696932883
-41.37283776195041
-41.25077270216485
-41.10060484087515
-40.85534450607738
-40.47489454439165
-39.96096764382551
-39.36075527766577
-38.75738558583411
-38.24976971623099
-37.92759385349479
-37.84769862485725
-38.01674174505796
-38.38324141475213
-38.84048799664384
-39.24031352246081
-39.41606899333716
-39.2113049961836
-38.50875305743283
-37.25292114734574
-35.46027322905859
-33.21437717501532
-30.64818712306127
-27.91900535335469
-25.18229639335508
-22.5692830561117
-20.17158312205999
-18.03471701867116
-16.16105596738883
-14.52141000094012
-13.07285500061884
-11.77866961373032
-10.62494503634835
-9.6287261172273
-8.835230971694205
-8.305645788617172
-8.099829922112898
-8.258819444851252
-8.791018557234603
-9.66461800990604
-10.80761108517171
-12.11570799336194
-13.46725544975055
-14.74285592358656
-15.84581507329789
-16.71831197108443
-17.34844884547595
-17.76593940290885
-18.02808942928935
-18.2005637239502
-18.33798628357044
-18.46837311603071
-18.58399002883714
-18.6400530214417
-18.56165459842386
-18.258132553947
-17.6426722359376
-16.65329487328881
-15.27001274137262
-13.52302838088876
-11.48934057709983
-9.279004233959796
-7.015224146963813
-4.813165762494507
-2.761489490960353
-0.9093814715114825
0.7391603885927438
2.222916167025056
3.613072873494793
4.996377551219245
6.454921570552696
8.047180248765759
9.79522316988996
11.68115431078284
13.65260851418866
15.63455122351534
17.5438690145384
19.30378443579638
20.85590608798391
22.16823416148446
23.23784762557877
24.08762208360683
24.75733210016619
25.29092537258755
25.72330265645
26.07057913803691
26.32660530000251
26.46601969330706
26.4520003269809
26.24622925496402
25.81898420255392
25.1577776934918
24.27315067505234
23.20032315154663
21.99578203250637
20.7287429143528
19.46884051414352
18.27308333734128
17.17597469368149
16.18569824561792
15.28682862547448
14.44787559010078
13.63126411143499
12.80376266920777
11.94588815833011
11.05890725560216
10.1679686089671
9.320122957822566
8.576795854891355
8.001778509062472
7.647681237059957
7.544888042498409
7.696191188851421
8.077872313801993
8.645810976273523
9.344480134162254
10.11711041757979
10.91578680220074
11.71017894134778
12.49326853565997
13.28239331357161
14.11453476369881
15.03622233285125
16.0904588729105
17.30451510500325
18.68202116841696
20.20075038730763
21.81549968718183
23.46473630475976
25.07993177201408
26.59669066070894
27.96632461065136
29.16576500159451
30.20330626146327
31.11804829146341
31.97233604258869
32.83881038308553
33.78568334187269
34.86408812899583
36.09984829336506
37.49026121117004
39.00571539161643
40.59596271821924
42.20063131886769
43.76257519240387
45.24139462292675
46.62369590221831
47.92685963625991
49.19459079128954
50.48521026959953
51.8562206957705
53.34947727259404
54.98014395705129
56.73094961865971
58.55234113774164
60.36884427205445
62.09134290327301
63.63363196356983
64.93003971648378
65.9499397273692
66.70506761050508
67.24713505775797
67.65622523022319
68.02347295622407
68.43274503852562
68.94515307844581
69.58866659128084
70.35413092172686
71.19855902717984
72.05576344975368
72.85280456126115
73.52890535674688
74.05224657373059
74.4299689018864
74.70823588263336
74.96228501912934
75.27961940924192
75.74101562515338
76.40347242220419
77.28787270841825
78.37319348888947
79.59855195895203
80.873409838104
82.09451279817651
83.16621085966545
84.01952258180425
84.62517765580927
84.99726984654531
85.18698626349688
85.26890456591758
85.3239238061328
85.42265485142241
85.61209619191408
85.90766204301667
86.2920676341256
86.7215482024291
87.13818873636512
87.48538973681424
87.72244412074154
87.83424470949731
87.83349299973698
87.75524417636626
87.64610417341034
87.55156310344525
87.50457779466451
87.51752157715252
87.57884313166561
87.65519710060514
87.69891783449494
87.6593647950421
87.49538099697652
87.18549915636893
86.732930510548
86.16385524370423
85.51974830216042
84.84640462064165
84.1829430938767
83.55334297388471
82.96190332556925
82.39317189191968
81.81632596075646
81.19326509257168
80.48869652948311
79.67967966882313
78.76194049214811
77.75099924305003
76.67771540755882
75.57977130974034
74.49197283118049
73.43829012236829
72.42746359092567
71.45267829390266
70.49494918921647
69.52939417983727
68.53311849871803
67.49292488174306
66.41080380130829
65.30545749001385
64.20906462555666
63.15994245732101
62.19322080590184
61.33236927428766
60.5839530085853
59.93666556682049
59.36436866461167
58.83212137255813
58.30389267456564
57.75047257141209
57.15595078253254
56.52120892437221
55.86336125351522
55.21102013146866
54.59648266137602
54.04699779444077
53.5776204626784
53.18752676157084
52.86040533395923
52.56837686457015
52.27826884094664
51.95888242645563
51.58784343541058
51.15665130459836
50.67274919907273
50.15795529135677
49.64342718888446
49.16231032769475
48.74198460686391
48.39797001356535
48.13094159228313
47.92724465632389
47.76234788949275
47.60616615952433
47.4290567588685
47.20731976936538
46.92713288424577
46.58608967496363
46.19197264109969
45.75907979913762
45.3031735208919
44.83661602888797
44.36520843019681
43.88762987292816
43.39748314023169
42.88722855281218
42.35295535612248
41.79889880845403
41.24067820984975
40.70637901807465
40.23491668289396
39.87164654232026
39.66186435982463
39.64349340021653
39.84060239022438
40.25923254322468
40.88635784983512
41.69195285139818
42.63346856342117
43.6617073611273
44.72706110009923
45.78516070049518
46.80110433455086
47.7516240506664
48.62489010271277
49.41815726323743
50.13401057759214
50.7763317770793
51.34708788190888
51.84465323960284
52.26383620344621
52.59734844201087
52.83822286591828
52.9825778149205
53.032065381709
52.99535814802241
52.88817968175278
52.73168764710386
52.54944307580113
52.36363338133967
52.19147194918175
52.04263648079437
51.91826998283489
51.81164094670201
51.71023130360425
51.59883966491722
51.4631738002496
51.29330700697817
51.08634110054768
50.84773071976271
50.59099352773529
50.33590645846349
50.10565146837783
49.92357443177801
49.81018874493616
49.78086444397698
49.84442745433095
50.00273422698616
50.25118426441255
50.5800411169776
50.97631987308979
51.42588457408513
51.91533999776233
52.43335948024652
52.97127339998
53.5229610231839
54.08420775795837
54.65168455743643
55.22168910960158
55.78885192321626
56.34510786465894
56.87925165359594
57.37727885013761
57.82349789636321
58.2021722944182
58.49930417020627
58.70415739774523
58.81024280712714
58.81567576029867
58.72294986704286
58.53820472541335
58.27008131618752
57.92834829120034
57.52261314352467
57.06147611352448
56.55236372656752
56.00204065251511
55.41755954108913
54.80726219065583
54.18143677717271
53.55237303453618
52.93378794245797
52.33980276368596
51.78374669671934
51.27705543567998
50.82849643019409
50.44391475999551
50.12661795446762
49.87837584790802
49.70083062476622
49.59694925916462
49.57205492310393
49.63399709705305
49.79220864880987
50.05572708551366
50.4306019876279
50.91732650090913
51.50894789043874
52.1903602463335
52.93904695757239
53.72728208477536
54.52552192317133
55.30643796949448
56.0488397651251
56.74068616240701
57.38050402771545
57.97681491807785
58.54557834939879
59.10610432712642
59.67625043705242
60.26790100481546
60.88367280384193
61.5155309120024
62.1456148489666
62.74913389594202
63.2987572697502
63.76961265641243
64.14389537583344
64.4141704291751
64.58468984044337
64.6704208804051
64.69393288231275
64.68075966948484
64.65425105601834
64.63109332815341
64.6185107161044
64.61372459635417
64.60569712256044
64.57866678189191
64.51662712498491
64.40776542167012
64.24792906442329
64.04238297395395
63.80544062410737
63.55796132077222
63.32317923877617
63.12179184517147
62.9674913296235
62.86400750522741
62.80429893332524
62.77197043514894
62.74448414126063
62.69739520432933
62.60872179026389
62.46260075225668
62.25153908369239
61.97683416509471
61.64708799103991
61.27516981378459
60.8744197058239
60.45514104893122
60.02234174709761
59.57529087237894
59.10891815851144
58.61657358554341
58.09335593031374
57.53917877299354
56.96088168615504
56.37290746643684
55.79631974816441
55.25623464227596
54.7780985213209
54.38360601643831
54.08723731812999
53.89425752452041
53.80061746268018
53.79469091394029
53.86033844723585
53.98053622528638
54.14078400970117
54.33162819351617
54.54982022889396
54.79785333974761
55.08188788369968
55.40841595452826
55.78039623716515
56.19383814331889
56.63576068673756
57.08410562401141
57.50968300933538
57.87974059354968
58.16243561889442
58.33139391943802
58.36958140821472
58.27181047757696
58.04535801401232
57.70842331609201
57.28656134194127
56.80775946912364
56.29725930889844
55.77330602346975
55.24471111908022
54.71062128815581
54.1624012273911
53.58718634039842
52.97244672879906
52.31076551405425
51.60394764444776
50.86556945238964
50.12122458284934
49.40612946990863
48.7604235306675
48.22316287967362
47.82630832535158
47.58986576035129
47.51893855058064
47.60301328825801
47.81743781593988
48.12677989913058
48.48953603746713
48.86345135127443
49.21050570492277
49.50050760840529
49.71243588841861
49.83330720523186
49.85517135929255
49.77137786180072
49.57329029724831
49.24827689702661
48.77933890300663
48.14637108976111
47.32885415415929
46.30966607883343
45.07953236926038
43.64135832171923
42.01340345650148
40.23024543837383
38.34096201667293
36.40476595432283
34.48498754859671
32.64251958776772
30.9297086779032
29.38542985404582
28.0318614684594
26.87329948245797
25.89716683454045
25.07712464042806
24.37782750994221
23.76043208302118
23.1877048304551
22.62774847580838
22.05592448914624
21.45511674607853
20.81476279316464
20.12910260750424
19.39505196320072
18.61011375206574
17.77077724095873
16.87184484012677
15.90699512184979
14.87058825173082
13.76028158321063
12.57965255277853
11.33998001955706
10.06065178228915
8.768111117191118
7.493580737145845
6.26994921042708
5.128249919408507
4.094189517280794
3.185223041063167
2.408698795975049
1.761525178870698
1.231548214068346
0.8003806747277289
0.4469900903886154
0.1511930656700135
-0.1036272674981236
-0.3289518052209288
-0.5308073562292994
-0.7106107114796709
-0.8669303426219083
-0.9977957014570944
-1.103096600990269
-1.186566627761031
-1.256865913596976
-1.327437368532079
-1.415121984082346
-1.537869284203836
-1.712098842866996
-1.950286817124932
-2.259233190687517
-2.639308838381781
-3.084826755538095
-3.585521917278592
-4.128953472775319
-4.703471923270813
-5.301243538553412
-5.92073075548186
-6.568038446947314
-7.256683148981403
-8.005626726776573
-8.835803025559807
-9.765753483989151
-10.80722728129487
-11.9616181631269
-13.2179525381604
-14.55288986104372
-15.93287904315957
-17.31825084311202
-18.66865445253033
-19.94891845494922
-21.13418658501069
-22.21312669564464
-23.18826798814249
-24.07317517254408
-24.88705461547438
-25.64810220147161
-26.36715268452599
-27.04301753221137
-27.66050018714264
-28.1915787228572
-28.59969163755553
-28.84649380483608
-28.89991829446589
-28.7419500564639
-28.3743135651626
-27.820519066681
-27.12355143567987
-26.33968906382873
-25.52993771539309
-24.75096351363483
-24.04728117880007
-23.44605060468134
-22.95528786788331
-22.56565625447211
-22.25535001027281
-21.99700356055659
-21.76510880336084
-21.54220212957261
-21.32228807765335
-21.11072419678996
-20.92087002480682
-20.76868451351762
-20.66680864163179
-20.61956656775829
-20.61997348910707
-20.64937192363075
-20.67979565762732
-20.67864517976922
-20.61478917388217
-20.46482408703819
-20.21803629487058
-19.87879257500978
-19.46572281027007
-19.00795888846374
-18.53944303446927
-18.09264068217455
-17.69292541291777
-17.35461753983323
-17.07927348454036
-16.85640670310411
-16.66640793470981
-16.48502981069482
-16.28843835976246
-16.05762091154033
-15.78104277675854
-15.45494959465678
-15.08145386186189
-14.66516717991894
-14.20941185474759
-13.71301124896569
-13.16845475003952
-12.56192387141426
-11.87528543459724
-11.0897618752194
-10.19062217612831
-9.171935539662163
-8.04027275801882
-6.816354609787489
-5.534100181883564
-4.237184669064955
-2.973789039895391
-1.790538041631835
-0.7267115505562555
0.1902674871669776
0.9473315942928657
1.545929097876092
1.999958321141528
2.331965081780755
2.568393026478794
2.734855303085974
2.852355131912721
2.935072949900287
2.989876859075389
3.01731727303884
3.013635587697655
2.973198477501358
2.890740455830185
2.76290365439025
2.588786334259076
2.369461870862622
2.106666833462711
1.801083400175978
1.450806679373641
1.050578631469189
0.5921314342611279
0.0656226835432103
-0.5381492208429559
-1.225216773295619
-1.996133824042273
-2.844397854036499
-3.755980692403074
-4.710123739086136
-5.681321143277094
-6.642185701553283
-7.566665874443565
-8.43293473143253
-9.225337371338409
-9.935102509150228
-10.5599328288112
-11.1028562467441
-11.57078161966248
-11.97315009857467
-12.32097992644369
-12.62647759404267
-12.90323928161624
-13.16690341236352
-13.43593976063843
-13.73210507540917
-14.08005760204411
-14.50582149461193
-15.03421466976204
-15.68576961518326
-16.47383876506257
-17.40248715674538
-18.46560458941789
-19.64749486532662
-20.92498915769728
-22.27087653361131
-23.65818072188836
-25.06456312959521
-26.47593468747956
-27.88832548568162
-29.30735751972111
-30.74531974448433
-32.21657607811062
-33.73245774813317
-35.29678524323391
-36.90290845487757
-38.53282713446673
-40.15860382612443
-41.74589463875776
-43.25900877917974
-44.66651710318288
-45.9461515448598
-47.0877071657827
-48.09304430458887
-48.97311528171257
-49.74289140467282
-50.41565563453654
-50.99814005583812
-51.48759691778965
-51.87137554524263
-52.12909276535098
-52.23705513420257
-52.17418558531406
-51.92833211865501
-51.50157835010134
-50.91317640526135
-50.19912799162292
-49.40826622093572
-48.59566191042074
-47.81484649436689
-47.11047513398825
-46.5127652801274
-46.03457616877734
-45.67148980521588
-45.40475786707672
-45.20650555018602
-45.04616880325547
-44.89685272843253
-44.74022896171768
-44.5688586917265
-44.38549400332283
-44.19978857769853
-44.02353893230606
-43.86580110877406
-43.72904581993626
-43.60715494842101
-43.48566631803176
-43.34426494747556
-43.161097738397
-42.91808894232506
-42.60611768387458
-42.22877397271403
-41.80357246170006
-41.36008078600452
-40.93527993925721
-40.56722873598302
-40.288437010244
-40.1202674257941
-40.06936735140336
-40.12671791352557
-40.26943636745833
-40.46501110511208
-40.67720708291608
-40.87248714728033
-41.02554845632311
-41.12265728247931
-41.16202460120707
-41.15135725990793
-41.10351603628912
-41.03157071411457
-40.94447419844031
-40.8442859486069
-40.72550258579477
-40.57664429693985
-40.38381432325652
-40.13551691263959
-39.82763356731182
-39.46723145490113
-39.07400328202237
-38.6787360579514
-38.31908969850031
-38.03369888336724
-37.85590901657226
-37.80838504968379
-37.8995760737783
-38.12266290035457
-38.457178448874
-38.87300755138627
-39.3359929610692
-39.81395800336153
-40.28172509865837
-40.72385979568101
-41.1345094923543
-41.51461477135932
-41.86749011161868
-42.19402984239989
-42.48869751452447
-42.7372086731657
-42.91648805907379
-42.99706466934587
-42.94759065868156
-42.74069212493632
-42.35894598276137
-41.79954578755273
-41.07637222477804
-40.21883723789259
-39.26780179860478
-38.26961320454093
-37.26959612588763
-36.30624120619898
-35.40704978248566
-34.58661983036694
-33.84715694205912
-33.18120076866532
-32.57596805393899
-32.01833939775508
-31.49927153535339
-31.01650645523177
-30.57497520853901
-30.18503761911644
-29.85925984719675
-29.6086338462995
-29.43910789565017
-29.34915985209815
-29.32892455516096
-29.36109614557229
-29.423503998576
-29.49292366970889
-29.54935365489519
-29.57977030925864
-29.58044058567961
-29.55729457800599
-29.52444056874214
-29.50132692866164
-29.50920052586212
-29.567493126579
-29.69069283453671
-29.88613714569764
-30.15299447592792
-30.48249721279442
-30.85926213082688
-31.26331206700562
-31.67227850133151
-32.06332025440447
-32.41454452527019
-32.70600456002648
-32.92048623035129
-33.04425419948429
-33.06780808134363
-32.98659513074021
-32.80158805064139
-32.51966419557946
-32.15375273818845
-31.72268410340247
-31.25060164736677
-30.76577858550681
-30.29880467716304
-29.88032780721212
-29.53869958260714
-29.29786990452279
-29.17576242155459
-29.18327011386049
-29.32397485530451
-29.59466049749299
-29.98660149670967
-30.48746298468746
-31.08348042247722
-31.76146490268165
-32.51018697368958
-33.3208773400039
-34.18688648297245
-35.10279685496286
-36.06334872091394
-37.06246013553288
-38.0925238464986
-39.14411818922396
-40.20624614757359
-41.26715409659305
-42.31564125045545
-43.34256780305066
-44.34208598604102
-45.31207682550982
-46.25346128400376
-47.16842728118768
-48.05800158550852
-48.91961353418665
-49.74528428020227
-50.52089559007086
-51.22675413985123
-51.83945653333828
-52.3348935410993
-52.69205238373288
-52.89704090763719
-52.94653576025123
-52.84980163409624
-52.62865600948047
-52.31523928827369
-51.94801356686336
-51.56681931617297
-51.20794282950881
-50.90003464207366
-50.66148980325715
-50.49963671739064
-50.4118024725767
-50.38801693188203
-50.41478941229055
-50.47910638074256
-50.57167533888359
-50.68858647780726
-50.83099658743343
-51.00302352158662
-51.2085287269125
-51.44768266736133
-51.71416297399806
-51.99364107170656
-52.26395674875784
-52.49709277454444
-52.66274168988059
-52.73290431089267
-52.68662468012192
-52.51376667586891
-52.21681899687212
-51.81015958466392
-51.3169068190623
-50.76413131430489
-50.17754040591077
-49.57675002033802
-48.97204206735307
-48.36317710228005
-47.7404604842423
-47.08788142787193
-46.3877676554279
-45.62605855521904
-44.79708543798754
-43.90676674017332
-42.97345078189871
-42.02621533222359
-41.10104252368721
-40.23570016034715
-39.46431361284247
-38.81256477820046
-38.29427104615695
-37.90983894146849
-37.64679565833814
-37.48227325719388
-37.38696932519457
-37.32981437274788
-37.28243276472161
-37.22255615665239
-37.13585136416914
-37.01605836737406
-36.86371624753556
-36.68397357584396
-36.48404785049576
-36.27087481553009
-36.04941271725421
-35.82193168544923
-35.58839108687497
-35.34771180084987
-35.09948427196099
-34.84550419261834
-34.5905445634572
-34.34198345717208
-34.10825705597862
-33.89645463219264
-33.70960575448186
-33.54430131956764
-33.38924356974739
-33.22516406970207
-33.0263184860756
-32.7634741399301
-32.4079814123897
-31.9362463598908
-31.33377327143355
-30.59796358974489
-29.73907136166942
-28.77908784132039
-27.74873755020662
-26.68311043831492
-25.61668065234865
-24.57854231943803
-23.58863290681465
-22.6555485264284
-21.77629614856285
-20.93800511132196
-20.1213061142539
-19.30481007764234
-18.46988105947799
-17.60478170856218
-16.70739162202274
-15.78604193853359
-14.85843140705548
-13.94894311433332
-13.08490202390293
-12.29243206884563
-11.59262223198333
-10.99866311995216
-10.514458871204
-10.1350008691913
-9.848491932025436
-9.63978123937129
-9.494236601816992
-9.401000166482715
-9.354761639714223
-9.355633714067517
-9.407228033823888
-9.513432565534382
-9.67461467011755
-9.884046425586218
-10.12531082525921
-10.3713440787162
-10.58562552116211
-10.72573634901414
-10.74894077274364
-10.61875947859877
-10.31110631532659
-9.818651086625751
-9.152515941591409
-8.340974870420604
-7.425368037142104
-6.453912659118214
-5.474444987565709
-4.527321160708565
-3.639762547967204
-2.8228729725216
-2.072210743782254
-1.371969301325824
-0.7017301084747943
-0.04399077292366785
0.6094062160741097
1.253356078685113
1.868826778444063
2.425527947186545
2.887418317746528
3.220080447601008
3.398632383841126
3.414585063121105
3.27993048838057
3.027043651171477
2.703989528345558
2.366253270420412
2.066964063934618
1.847886457366926
1.733005971784155
1.72584765561517
1.810933354699742
1.959043729283424
2.135269397622348
2.308294517720736
2.458953378224781
2.585889940029814
2.706489860143882
2.852483557932786
3.061350818722863
3.365925560151058
3.784852682586466
4.316028267989416
4.934330063464324
5.594064011279776
6.235698704051098
6.795711813816927
7.217793096419485
7.463220967303254
7.518020521748736
7.39490457508503
7.129334730551827
6.770875299909814
6.372320176066823
5.979301624264694
5.62253338197715
5.314010298476298
5.047634877118323
4.80392958685642
4.557777452566935
4.287569823328048
3.983720385625731
3.654300544527521
3.325948455158104
3.039524843293664
2.84175941263894
2.775325224716366
2.869904168291435
3.136205540539027
3.564068553576694
4.124935502343206
4.778182680045679
5.480101427381549
6.193778006508865
6.897712686480415
7.59084836532895
8.292180500631057
9.03461502699434
9.85467819260087
10.78094481949689
11.8241195360217
12.9709537044093
14.18317421435649
15.40162681343275
16.55497043508812
17.57151488854523
18.39217986803762
18.98206541399547
19.33790344204875
19.48917951121645
19.49232531783626
19.41951819692247
19.34508749231284
19.33271384444738
19.42588119071176
19.64303074201803
19.97790490697535
20.40470995468006
20.8869482846051
21.38808915664656
21.88169148116033
22.35832262750409
22.82709659104092
23.31122128771969
23.83903286676376
24.43340977952497
25.10258622886313
25.83459422634324
26.59650509902941
27.33864385697387
28.00304576034309
28.5346175439728
28.89283831732049
29.06144994242331
29.05355216915152
28.91020227258416
28.69229934250989
28.46765814054649
28.29659080122114
28.2194032494112
28.24833821952766
28.36533248401586
28.525858390346
28.66811512870268
28.72591656812887
28.64288987581795
28.3851461230762
27.94952664711952
27.36520811367449
26.6881188542603
25.9897510775223
25.3434341508775
24.81134799388551
24.43481853283583
24.22938808532654
24.18515058226382
24.27192847113751
24.44803742115982
24.67071336675555
24.90583752642962
25.13449574024404
25.35447612671883
25.57629222469278
25.81522898101606
26.08219850562184
26.3762741893147
26.68094122972009
26.96498612896217
27.18793108971749
27.30906955272184
27.29845579872878
27.14769031483726
26.87807623933012
26.5437924032495
26.22844756019279
26.03499139091721
26.07097344867081
26.4325087735557
27.19042699567353
28.38122148500673
30.00417466333075
32.02479603545291
34.38359137789284
37.00825140088857
39.82671248729977
42.77824997149681
45.81988139783094
48.92621582318461
52.08275035796605
55.27489963020421
58.47651638477615
61.64166386607729
64.70230765238173
67.57309005416155
70.1627949053067
72.39063065704819
74.20428491850824
75.59615986731701
76.61435877924052
77.36570132685688
78.00939797931134
78.74219761401977
79.77823478606693
81.32817854117089
83.58195991337169
86.69776713266313
90.7979763220813
95.97080922407734
102.2750881874694
109.7448050799434
118.3906327005963
128.1967992052589
139.1132467001943
151.0443830001062
163.8372261183775
177.2731017722767
191.067312819227
204.8797636481852
218.3369907632155
231.0635597175445
242.7187864506547
253.0329533191473
261.8359501662316
269.0718168497941
274.7954124021407
279.1511389054539
282.336985259979
284.5599141273851
285.9906677310236
286.7264459817624
286.767909455022
286.0136697641744
284.2728608111325
281.2948435604057
276.8130035044342
270.5963717604377
262.5000397637043
252.5046900772207
240.7372252711571
227.4680048460273
213.0850950441412
198.0509434232718
182.8499646526536
167.9354972662115
153.682725286767
140.3529144053419
128.0742452618242
116.8437244378745
106.5514730577946
97.02356679337593
88.07433259640825
79.55577174070345
71.39239373517553
63.59441329876428
56.24884237036958
49.49330460211102
43.47965074527298
38.33450979575669
34.123705587896
30.82757770385471
28.33353845246806
26.44949003386331
24.9368936658026
23.55635764874689
22.11387356850961
20.49508898083275
18.67929754358693
16.73183562688778
14.7794206851533
12.97564851471697
11.46415137902452
10.34628618172254
9.659170990435957
9.368215242808262
9.375837372580174
9.544790310798033
9.730618023081465
9.814419192783625
9.726486593324267
9.454775273060344
9.037833899737556
8.546449590047638
8.06009005428461
7.643976297349483
7.331454862404355
7.114772209166352
6.945631881731068
6.745246056068062
6.421926016506686
5.892433359782936
5.101735337043198
4.035699756469564
2.723514031192946
1.230232622522351
-0.3573373091344913
-1.94729964264559
-3.458201661573851
-4.830679350932241
-6.03354767694097
-7.063787108017627
-7.940887595697875
-8.696898776391382
-9.364413782058907
-9.965469833724772
-10.50436477667622
-10.96612340383196
-11.32029655231912
-11.52818434142644
-11.55110451842781
-11.35767248904713
-10.9287090019587
-10.25908875561889
-9.356473632292667
-8.237384942132499
-6.921526738975756
-5.425816076510616
-3.760119075087445
-1.926674659193784
0.07592258408598607
2.24512835128212
4.565600330896583
7.001785505222721
9.494120360208923
11.96016161653451
14.30103334412835
16.4126684144838
18.20047775761787
19.59528253714753
20.56754217724334
21.13631478567216
21.36973603120028
21.37572686515405
21.28451480129893
21.22678504510674
21.31194841763141
21.61047543991092
22.14318740707104
22.87913809391581
23.74236751442524
24.62645705020852
25.4144930666087
26.00072382561618
26.30915394825877
26.3044638379514
25.99272184634974
25.4126548622762
24.62089368391596
23.6755032316971
22.62161518484995
21.4819190080541
20.25357602179272
18.91194269568646
17.42036561524287
15.74419338161106
13.86598310782491
11.79792428049485
9.587570112701268
7.314733517673006
5.080268879126027
2.989809919818368
1.136392053195064
-0.4144607568541698
-1.634517525534001
-2.535958082759671
-3.167471513775728
-3.604062747378182
-3.932297373795047
-4.233735400270149
-4.570174913162237
-4.974361069866474
-5.448385754583139
-5.969563721982195
-6.501484774982511
-7.007072493272568
-7.460624172677805
-7.856443022144734
-8.21251987244741
-8.568631884892545
-8.979124174410332
-9.501594462369793
-10.18380336200201
-11.05214548188054
-12.10517490370044
-13.31432023906126
-14.63152559426701
-16.00149806406339
-17.3753759398871
-18.72275558177053
-20.03966802254711
-21.35100925978963
-22.70688055120572
-24.17318038832744
-25.81775186382161
-27.69457506833144
-29.82960764228121
-32.2120718121526
-34.79360679854431
-37.49529211089847
-40.22049099045125
-42.87052989004246
-45.36016155404665
-47.63015082877853
-49.65501365257806
-51.4447612440449
-53.04033480473103
-54.50338955346272
-55.90233567576301
-57.29777060265411
-58.73086434389641
-60.21731292113399
-61.74760602320803
-63.29268862263883
-64.81320263342778
-66.27015687125699
-67.63486906681412
-68.89634035318623
-70.0647335348704
-71.17019779356417
-72.25703581465993
-73.37429195333657
-74.56499717929935
-75.85686461504322
-77.25669264677985
-78.74942769938151
-80.30160306698889
-81.86810260481921
-83.40074835797559
-84.85700310207564
-86.20717434088019
-87.43879184464261
-88.55719566456858
-89.58198216192042
-90.53997725392014
-91.45656785039806
-92.34786283341096
-93.21580886564219
-94.04732504065855
-94.81743894234558
-95.49561657911366
-96.05387724865669
-96.47491803948324
-96.75849307813859
-96.92458859392677
-97.01235700152857
-97.07447089869528
-97.16768418940892
-97.34163964365916
-97.6286635719762
-98.03698252435389
-98.54873859091403
-99.1230277271909
-99.70325686645491
-100.2273599813329
-100.6389144911773
-100.8971004220961
-100.983624169797
-100.9050824838347
-100.6899914627466
-100.3810101817651
-100.0243694483055
-99.65940598056324
-99.31088798854748
-98.98573786695968
-98.67450940320876
-98.35695426925808
-98.0102107654662
-97.61764299443433
-97.17627582614172
-96.70098989151312
-96.22407222239531
-95.78959243268062
-95.44352527211335
-95.22210997368745
-95.1417615260687
-95.19338282265262
-95.34249667069719
-95.53507287316714
-95.70775106214444
-95.80034759576665
-95.76812997559742
-95.59143062506483
-95.28057868113973
-94.87473269732673
-94.43423877674596
-94.02775576154625
-93.71708958952622
-93.54354937161177
-93.51910959229707
-93.62409946138378
-93.81146574077249
-94.01638902155884
-94.16913865501031
-94.20854429609533
-94.09345800403743
-93.80995601639903
-93.37266121052093
-92.819637315284
-92.20189877197616
-91.57021592568233
-90.96273783930445
-90.39649773728844
-89.86444651892077
-89.33813426189056
-88.77502307306165
-88.12862880528667
-87.35923944176514
-86.4429367715068
-85.37696214307152
-84.18003605708763
-82.8872355692268
-81.54049419643731
-80.17724211185255
-78.82039103658886
-77.47235140925574
-76.11437563761064
-74.71104970758078
-73.21868815497736
-71.59572567906878
-69.81292827439228
-67.86138522678273
-65.75663509488449
-63.53784570683136
-61.26188824618971
-58.99345340092648
-56.79361898234536
-54.70981391737089
-52.76954083479225
-50.97884584299942
-49.32516087667847
-47.78328115505631
-46.32284480312238
-44.91563822474122
-43.54128372888439
-42.19022257179825
-40.86335120358345
-39.56835629099954
-38.31372990639992
-37.10228544985737
-35.92623612628643
-34.76527108288121
-33.58788690646106
-32.3552027768738
-31.02599185113847
-29.56160932921605
-27.92974285674752
-26.10635861375197
-24.07569915033709
-21.82860107354065
-19.35978042494491
-16.66508563787247
-13.73990366055208
-10.57968537893007
-7.182797673807223
-3.554910444007539
0.286521994397407
4.309168743832303
8.4652345920329
12.69391676714679
16.92675257335501
21.0950179698582
25.13780232143561
29.00910204894994
32.68230323233725
36.15077677554094
39.42406066223879
42.52029687426497
45.45685793351803
48.24175647384236
50.86817086980925
53.31350252015713
55.54322463408997
57.51870876817979
59.20740486076571
60.59324859714981
61.68500268667823
62.52043750142474
63.16481345041897
63.70314555946583
64.22730569145398
64.82068228501326
65.54397266126679
66.42532976269551
67.45689120786948
68.59824443088556
69.78601137817908
70.94766301912345
72.01695866532819
72.94808328358468
73.72563981099402
74.36814550544236
74.92378522834203
75.4590678942958
76.04314557077507
76.73176397160678
77.55460203427643
78.50856505640498
79.55809929722372
80.64220051426466
81.68662461552384
82.61890212079251
83.38318182001703
83.95175722060613
84.33043938211361
84.55602736880148
84.68620212842947
84.78455354972156
84.90484593627816
85.07844469530094
85.30758495023737
85.56564909564969
85.80424522407715
85.96570050432399
85.99859147888016
85.87321556885658
85.5935684664156
85.20256750127888
84.7783585448403
84.42184122582226
84.238278537338
84.31754416121538
84.71751740352643
85.45390501023276
86.49818171707214
87.78381755287161
89.2195783904556
90.70747320304406
92.16197820411912
93.52659357542561
94.78377044294912
95.95531426543016
97.09288392855659
98.26130947092435
99.51946120396373
100.9034989775614
102.4160881642193
104.0235255227483
105.661148616806
107.2459643444185
108.6941154512073
109.9397155608904
110.9508721307046
111.7386389619209
112.3557878643358
112.8850302694421
113.4197085097521
114.0421795631171
114.8052237350744
115.7204290838515
116.7556482462841
117.8418407188862
118.8879931720755
119.8013575808946
120.5090761808611
120.9765305971588
121.2177322489456
121.2943752117051
121.303159721886
121.3546461415485
121.5492765434408
121.9563479077858
122.6002863886016
123.4566445014479
124.4583693291966
125.5111237651783
126.5147914905773
127.3869286022408
128.083052422854
128.6085945329347
129.0187431672394
129.4056180937876
129.8761515887734
130.5266285604989
131.420059919714
132.5711042426264
133.9412363651025
135.4448608197976
136.9651780729036
138.3768646852427
139.5711747016253
140.4780982500043
141.0800664151555
141.4130992898573
141.5546664767384
141.6017007063083
141.6449743758832
141.7463110344619
141.9235416070867
142.1459351579667
142.3407176037741
142.4093840952663
142.2507957596607
141.7865991541592
140.9834818421305
139.8665646553113
138.5196312531161
137.0713575545001
135.671024007697
134.460094512291
133.5463944389175
132.9861147016177
132.7767035047733
132.8615363204083
133.1452453331479
133.5167750630725
133.8756868604094
134.1560998447922
134.3423270162909
134.4716056624789
134.6228145362988
134.8944700319583
135.3782665644977
136.1348411264989
137.1770009798256
138.4635134892092
139.9043695784905
141.3764261160297
142.7465640140703
143.8979827487883
144.7540705540977
145.2938666089859
145.5544185708207
145.6188865035687
145.5937776220413
145.5817754861924
145.657036885681
145.8482820147004
146.1327366023458
146.4417219449405
146.6766655022256
146.7325413294595
146.5242410578939
146.0102086479929
145.207271910866
144.1919214493153
143.0868784849714
142.0363817053151
141.1767616492849
140.6093443693286
140.3812498255531
140.477439139523
140.8251069398533
141.309448513611
141.798006363782
142.1692101108557
142.3394195709809
142.2821847627762
142.034554873933
141.6887288246217
141.3718999726843
141.2203470294388
141.3544115219485
141.8596435456231
142.7772830093492
144.1051023047791
145.807748348044
147.8341044091682
150.1377680132714
152.6955357260576
155.5182508187922
158.6495617139842
162.151694088209
166.0819357138003
170.4666054984085
175.2795718859097
180.4306551423439
185.7667165214418
191.0855726905631
196.1603676390705
200.7699231891398
204.7291207078932
207.9127253038478
210.2665225643245
211.8018543716916
212.5739223934962
212.6491508176121
212.0699439712824
210.8251513326116
208.8323222371579
205.9348408025121
201.9141869744011
196.5152359240814
189.4807795397021
180.5902115347187
169.6962284548851
156.7525358930735
141.8260918683445
125.0905250351824
106.802084048042
87.26321718463569
66.78013105873563
45.62005389599296
23.97290547437607
1.921669898322266
-20.57385046933778
-43.67475959439703
-67.6381913698169
-92.77000800106894
-119.3621698693048
-147.62773401844
-177.6474817471348
-209.3385151548892
-242.4499610317824
-276.5865587941725
-311.257544054492
-345.9450632830162
-380.1826904308471
-413.630407126695
-446.1290080895049
-477.7174496068657
-508.6041609199637
-539.0967105174487
-569.5072336534719
-600.0572120260558
-630.8034071175997
-661.600307247223
-692.1063975861706
-721.8332320376713
-750.2287008826065
-776.7795438563618
-801.1126454452397
-823.0709908730242
-842.7422348603088
-860.4287525596052
-876.565204835494
-891.6052683842363
-905.9064715085398
-919.6402153727402
-932.7464337744422
-944.9418157112062
-955.7789040707247
-964.743293973974
-971.3692539736387
-975.349492241068
-976.6127120147142
-975.346934899208
-971.9599214435985
-966.9862536064837
-960.9653724959138
-954.3205079227405
-947.2655220559824
-939.7587600281621
-931.5123480251438
-922.0535583794232
-910.824842331569
-897.3029880161372
-881.1144618743822
-862.1227533391381
-840.4675351180274
-816.5469319962598
-790.9495636068102
-764.3552952421192
-737.4285198121388
-710.7259868664961
-684.6354784793486
-659.3536846927047
-634.9026880417942
-611.177009401172
-588.0089267936592
-565.2377212270477
-542.7676562310763
-520.601597029488
-498.8438129252946
-477.6746086722838
-457.3067288453661
-437.9364167475765
-419.7010980905275
-402.6525670723826
-386.7501111008331
-371.8728864366047
-357.846732119393
-344.4786659565945
-331.5917188963472
-319.0526109808273
-306.7859648836847
-294.772339947775
-283.0322606416223
-271.602172276366
-260.5094651549625
-249.7528132821314
-239.2921530456829
-229.0500771543339
-218.9234586196531
-208.8017322471155
-198.5872938577352
-188.2135196427014
-177.6563302958372
-166.9364167399821
-156.1116734401764
-145.2622658021146
-134.4726036637703
-123.8145998763352
-113.3355007089776
-103.0521703242052
-92.95228206598148
-83.00137501159004
-73.153555973537
-63.36325418552435
-53.5957439665677
-43.83472522709366
-34.08603987005404
-24.37765354156355
-14.75699348750686
-5.287083886582143
3.957455782904849
12.89418191644205
21.43652641687276
29.49778593007028
36.99575576757299
43.85819962684601
50.02898011934891
55.47416396014895
60.18695332493633
64.19010391724046
67.53471834686974
70.29495099598124
72.55908816229675
74.41843633349538
75.95613705192535
77.23813686402501
78.30803071147506
79.18660928475347
79.87599873820712
80.36745363781702
80.6511442043848
80.72571866812883
80.6052919322463
80.32207296697143
79.92399765501683
79.46804950260791
79.01099139950101
78.5997644840125
78.2637739640581
78.01073063924554
77.82684847227986
77.68129485160958
77.53399776633229
77.34519111746872
77.08448965239567
76.73718567856513
76.30617906084244
75.8093239693026
75.27335860642556
74.72638855346588
74.19100833226743
73.67978207343327
73.19413272851085
72.72684362770177
72.26758620876274
71.81028027062364
71.36056383523098
70.94121077633056
70.59338134088414
70.37253047335875
70.33945198299804
70.54850101063019
71.0357596803546
71.80971580788416
72.84633170885951
74.08950752202509
75.4570102722697
76.85108267112297
78.17221691430724
79.33386527539264
80.2752317059493
80.96923075748802
81.423691051433
81.67575724114249
81.78134280046359
81.8025381078605
81.79590712539424
81.8039925780542
81.85143840361947
81.94610954711575
82.08464097292836
82.26106551189721
82.47643146071664
82.7466763411
83.1059795362039
83.6039044846162
84.29667583156109
85.23491361678339
86.45107867913363
87.94965465684872
89.70223944908525
91.64864659376303
93.7039719284816
95.77055418301049
97.75294373634947
99.57323465074221
101.1834463705886
102.571656136885
103.759928931566
104.7945575935208
105.7314944635013
106.6209361381595
107.4946993799612
108.358969483368
109.1936933254932
109.95850869628
110.6039153183929
111.0855210620866
111.3783952506792
111.4878329215882
111.4529260583437
111.3410670973063
111.2345646102003
111.2133141094793
111.3384073575176
111.6406611607841
112.1163781847023
112.7309736580239
113.4295996407682
114.1527443867089
114.8539853610855
115.5162919503401
116.1625637197748
116.856418370179
117.6915877289458
118.7721597129437
120.1892156583211
122.0002381135784
124.2161119019005
126.7981578119586
129.6654681986001
132.7110240459383
135.8237530130395
138.9127924173391
141.9293491229681
144.8807731088706
147.8319239523678
150.8917640479022
154.1878060680385
157.835126564773
161.9078796093144
166.4196501540965
171.316275523115
176.4821200128853
181.7584589711508
186.9707963543287
191.9606102292551
196.6157485048201
200.8925673601302
204.8232693572657
208.5051510947194
212.0740203199837
215.6690943074427
219.3986142208745
223.314082267751
227.3981684986702
231.5682111437495
235.6942476265614
239.6280764933819
243.2381111003561
246.4432360303826
249.237547563001
251.6982708605659
253.9729021763049
256.2480406434062
258.7082530866923
261.4956536660891
264.6794853897024
268.2417407621336
272.0811877485873
276.0345986518156
279.9110718636252
283.5333057059793
286.7779382415466
289.605603825517
292.0718750833915
294.3145342158997
296.5198381339694
298.8770380061144
301.5330913620548
304.5580537516876
307.9280769243583
311.5288228132724
315.1780576639104
318.6629220384586
321.7851428550866
324.4055606415947
326.4777481111257
328.0610573132547
329.3080497498037
330.4289940772259
331.643148251986
333.1294615619527
334.9879430395597
337.219297700177
339.7260834906594
342.3342820088338
344.8306581317185
347.0089481136608
348.7159877214828
349.8872732515927
350.5620371547345
350.872594802924
351.0104498574893
351.1786581378464
351.5429683266017
352.1930884895228
353.1219459577592
354.2264296987702
355.3285602900437
356.2123431956571
356.6692171441146
356.5432562764526
355.7659297707221
354.3710123872235
352.4848646197153
350.2946473959329
348.0035267215976
345.7846253980589
343.74433665717
341.9023668811055
340.1917489763422
338.4777161951528
336.5907905231796
334.3672809731504
331.6889124274052
328.5123117250671
324.8801533596144
320.9103231141324
316.7662265943313
312.6169822379669
308.5981810564773
304.7823863158849
301.1653414006666
297.6700650040983
294.1671306422907
290.5063476015349
286.5533185022378
282.223340320723
277.5046280092108
272.4642108598676
267.2341834909308
261.9819964389415
256.8731301185095
252.0357267006443
247.5349712681983
243.3619531604387
239.4384308157429
235.6356856323436
231.8031069827394
227.8007252286308
223.5291523650102
218.9501643545655
214.0925357161378
209.0415036544415
203.9152117808889
198.8351642438588
193.8984856347394
189.1580921999328
184.6142605343476
180.2184071175081
175.887373625172
171.5245937014922
167.0435421327851
162.3885000407661
157.5477533414034
152.5556126791302
147.4826274437549
142.4170998606889
137.4435502236045
132.623948773089
127.985831225118
123.5192152537475
119.1822528715336
114.913815976259
110.649934377675
106.3404741332006
101.9624674434622
97.52690198775376
93.07694723876172
88.67784971034281
84.4013737804194
80.3092941278296
76.44020328849881
72.80227572871128
69.37280710782836
66.10394030294037
62.93294597682157
59.79474967658329
56.63419051702375
53.41561305327325
50.12773981382156
46.78263532646427
43.40915732661423
40.04310001955388
36.71725029855101
33.45417108155964
30.26312131235687
27.14111764695301
24.07725523863164
21.05890842279389
18.07818870268351
15.13708069315268
12.24995834950458
9.442638306603062
6.747861358273087
4.198179120383567
1.818322794988047
-0.3804622888611784
-2.402362824775111
-4.264925334394144
-5.993925206943831
-7.616709245421437
-9.155595302378664
-10.62272066749857
-12.01739763285343
-13.32660391954757
-14.52872228477058
-15.59997805455212
-16.52217838471647
-17.28960085559856
-17.91278923056707
-18.41795735769483
-18.84224806820806
-19.22632081991677
-19.60617461916065
-20.00597395129542
-20.43328443347876
-20.8776519806002
-21.31287719276669
-21.70268177383478
-22.00877229728784
-22.19961884893809
-22.25778560959764
-22.18380013061209
-21.99557155804563
-21.723838603048
-21.40521724143921
-21.07471791351623
-20.7593522890079
-20.47402252328014
-20.22041178665144
-19.98905837917834
-19.76420660635604
-19.53042542674106
-19.27942506831535
-19.01516791231741
-18.75562111354096
-18.53050738908147
-18.37575159845517
-18.32625650671342
-18.40884538051569
-18.63690805278584
-19.00779868974796
-19.50349426602446
-20.0944660185678
-20.74615401179986
-21.42685762568037
-22.11528974615094
-22.80571424020537
-23.50892289398208
-24.24850111010445
-25.05337943556186
-25.94872276176907
-26.9474080891787
-28.04396443402866
-29.21226345185532
-30.40757591064586
-31.57284931892351
-32.64826492661313
-33.58237165449689
-34.34244641570144
-34.92142948941342
-35.33928493121295
-35.63814633768144
-35.87253581270554
-36.09727018301089
-36.35592292405434
-36.67219855221491
-37.045775826554
-37.4533182006949
-37.85448471354096
-38.20191335059057
-38.45330260893004
-38.58294986871342
-38.58970766028321
-38.49883787443571
-38.35693693742835
-38.22130384621887
-38.14665370589431
-38.17239397707721
-38.31312813091928
-38.55417543018667
-38.85295209454328
-39.14609885285459
-39.3612742845861
-39.43157402284327
-39.30964839582052
-38.9780888636257
-38.45315028260613
-37.78068874828691
-37.02561007673192
-36.25783628488941
-35.53818672434224
-34.90703408750723
-34.37774330660469
-33.9359811699841
-33.54500264320826
-33.1559877435141
-32.72147159775855
-32.20896381405895
-31.61129171208702
-30.95063842755648
-30.2750243841151
-29.64839929477614
-29.13724822192346
-28.79703269663938
-28.66128994729193
-28.73541064002244
-28.99623170691373
-29.39760054721373
-29.88100551119679
-30.38928928337603
-30.88045575908802
-31.33796374335704
-31.77433676980147
-32.22680156783422
-32.74626965414262
-33.38287023443082
-34.17171568831957
-35.12203333565884
-36.21186955569215
-37.38953018004892
-38.58178983642942
-39.70770203253398
-40.69560363960101
-41.49970722676679
-42.11190506337157
-42.56492434219148
-42.9253060678834
-43.27793549772429
-43.70622813274858
-44.2726780845444
-45.00382291884832
-45.88255072787526
-46.84934910552484
-47.81259885368855
-48.66643322676712
-49.31311086424784
-49.68537345513285
-49.76330791685497
-49.58081060155989
-49.21951641003219
-48.79196576605113
-48.41867650174888
-48.20457684002022
-48.21955371626022
-48.48661514486894
-48.97969255803997
-49.63145387601135
-50.34976319829717
-51.0397179291318
-51.62659995580791
-52.07402138785537
-52.39206608338563
-52.63303746754828
-52.87646879148334
-53.20808172814982
-53.69821442515633
-54.38448135478892
-55.26206758863518
-56.28350814039969
-57.36812614697938
-58.41958074182582
-59.34828142653669
-60.09384232488624
-60.64173663663625
-61.02894611679318
-61.33640111144177
-61.67025981747298
-62.13723291414126
-62.82000085984711
-63.75792416147266
-64.9367418819384
-66.28921844650283
-67.70682012414979
-69.06058183048768
-70.22745152009422
-71.11667022983613
-71.68967041151744
-71.96772288143013
-72.02489350423895
-71.96854633402837
-71.91307911638407
-71.95346784722017
-72.14422929486737
-72.4877413381541
-72.93398266240874
-73.39175426414342
-73.74942502892583
-73.9013161717589
-73.77412581174372
-73.3467909979982
-72.65800887571567
-71.79900742007584
-70.893829879276
-70.07283058699275
-69.44595555316576
-69.08140108223992
-68.99357170712182
-69.14238662476905
-69.44398688277194
-69.79087527380175
-70.07761736224127
-70.2265849439177
-70.20730355828879
-70.04382432746267
-69.80784055758353
-69.59980362400286
-69.52360324426797
-69.66120128272556
-70.05265493417735
-70.68537785122903
-71.49469087938434
-72.37570866689836
-73.20450951133519
-73.86457362601345
-74.27284661382448
-74.3989412522148
-74.27193496495835
-73.97258939690654
-73.61340085386624
-73.31222303157767
-73.16600272143312
-73.23012928620628
-73.50719093374066
-73.94704786183254
-74.45812644285486
-74.92781749871813
-75.24801665619869
-75.34033865225783
-75.17478200353666
-74.77656411690337
-74.21909880922934
-73.60548620557748
-73.04405935156896
-72.62424119802193
-72.39787541765584
-72.36946188700844
-72.49688877392518
-72.70238793974967
-72.89161098598345
-72.97705717381818
-72.90072382000501
-72.65019427186756
-72.26332415719058
-71.81980196117158
-71.42204288098982
-71.17088162726408
-71.142183609714
-71.36942168279944
-71.83555046471263
-72.4756397144921
-73.18978265541722
-73.86389363037658
-74.39435398096371
-74.71121808522592
-74.7942004981208
-74.67675407434419
-74.43674524332111
-74.17642760352348
-73.99737536193341
-73.97660732164283
-74.14896951241202
-74.49906798080099
-74.96415517151563
-75.4474395255267
-75.83939721168619
-76.0429961624603
-75.99745567410034
-75.69462703799216
-75.18315487626498
-74.558823461148
-73.94378271403122
-73.46040039703989
-73.20611105019114
-73.23448780214564
-73.54597411707789
-74.08978430195779
-74.77649100239923
-75.49887509769992
-76.15691607590526
-76.68151198040607
-77.05099503086684
-77.29560680145565
-77.48836805880342
-77.7250834760148
-78.0992554311261
-78.67825559239881
-79.48591511867342
-80.4949054072268
-81.63037690824379
-82.7843183440343
-83.83807913253435
-84.68870104930522
-85.27334186054392
-85.58553697152041
-85.67824585965525
-85.65215399073253
-85.63231617975771
-85.7394582126793
-86.06283629089427
-86.64024672219338
-87.44883289266666
-88.40829173497221
-89.39597017808418
-90.27123440065715
-90.90459400126912
-91.20556451192986
-91.14258150075932
-90.74942519996803
-90.1162199659573
-89.36787372399178
-88.63623775697194
-88.03294709939884
-87.62859643299137
-87.44192821049384
-87.44067256759851
-87.55363506561793
-87.69160533302401
-87.77281601838247
-87.74721243818095
-87.61314011932926
-87.42119210602502
-87.26349563899953
-87.25140711445908
-87.48790073663552
-88.04157279471274
-88.92787402405665
-90.10118318518592
-91.45922666145746
-92.85921091570306
-94.14294098508545
-95.16632164641406
-95.82715991052505
-96.08454905205086
-95.96432027188268
-95.54874260968295
-94.95354819092478
-94.29884127015491
-93.68113657989535
-93.15240166049206
-92.70987293520622
-92.29823837403282
-91.82363911636764
-91.176874065925
-90.26132043029877
-89.01958289011753
-87.45220734425988
-85.62294154300747
-83.6486269421949
-81.67659599297905
-79.85586461154548
-78.30912428577034
-77.11128575386402
-76.27835771857643
-75.76835019825407
-75.49378865856211
-75.34340069988804
-75.20873107638741
-75.00999594412053
-74.71481707912288
-74.34453466997522
-73.96619235664387
-73.67282387926619
-73.55792023109274
-73.6906579206727
-74.09730794833486
-74.752398822605
-75.58122968064775
-76.47332157497851
-77.3044268395697
-77.96291571187841
-78.37488245452323
-78.52161449610644
-78.44414411313467
-78.23307131651829
-78.00647370439717
-77.8820213658701
-77.95010755122966
-78.25359849758281
-78.77791090886474
-79.45310198937017
-80.1675873931286
-80.79105414514548
-81.20225490448996
-81.31583301058754
-81.10159826461376
-80.59075446051776
-79.86709211285311
-79.04585290132871
-78.24633717510328
-77.56506047625192
-77.05507057805026
-76.71513072154565
-76.49045388427228
-76.284662232445
-75.98070954305766
-75.46675146976942
-74.6615246686256
-73.53311896796012
-72.10600648430072
-70.4543961464152
-68.68427694955588
-66.90960180294975
-65.22873890244999
-63.70621259941436
-62.36299964808767
-61.1768090629395
-60.09197983326511
-59.03693370295358
-57.94561282838855
-56.77814090422255
-55.53542564714478
-54.26334261146862
-53.04497982091269
-51.98317720608843
-51.17826577692877
-50.70647238944417
-50.60348263469368
-50.856116508608
-51.4034234913813
-52.14683858470116
-52.96744323132106
-53.74698283742353
-54.38824043062304
-54.82995219142668
-55.05234282482595
-55.07197047297618
-54.9279831690463
-54.66427221140646
-54.31242101816473
-53.87934203399226
-53.34201758411213
-52.65027235726071
-51.737061490192
-50.53437581155139
-48.99165548812257
-47.09270920648626
-44.86683001099308
-42.39066652862413
-39.77981516385471
-37.17221087501365
-34.70755724084205
-32.50742360473004
-30.65976812050879
-29.21034198783036
-28.1620434832489
-27.48187546037213
-27.11381200260797
-26.99476109923511
-27.07004119230838
-27.30456249698639
-27.68668835758264
-28.22384702099152
-28.93164901878009
-29.82011568571876
-30.88093020033389
-32.07883791620475
-33.34916217433295
-34.60217099748722
-35.73376877231102
-36.6407620391418
-37.23790235444672
-37.47318393066704
-37.33769497672254
-36.86715135431928
-36.1343503201489
-35.23446217647242
-34.26694143017075
-33.31817173030022
-32.44818447492496
-31.68362773826204
-31.01793690257612
-30.41840723389217
-29.83864194571728
-29.23378325988211
-28.57516963498468
-27.86081729999264
-27.11883996542365
-26.402856426909
-25.78092473549609
-25.32128042090671
-25.07847948155169
-25.0828598683953
-25.33521045274837
-25.80746526777512
-26.44913912405125
-27.19813415920179
-27.99362155133941
-28.78808719721448
-29.55550672638416
-30.29332685780805
-31.01766487362725
-31.75331220694605
-32.52161556955165
-33.32951349852027
-34.16226846436554
-34.98138680132715
-35.72818497358344
-36.33246312350866
-36.72477501264038
-36.84994379284441
-36.67893406261759
-36.21615706158654
-35.50006727440035
-34.59663837918333
-33.58740778953034
-32.55519657761283
-31.57079584867795
-30.68318587081581
-29.91482458489884
-29.26253188037739
-28.70353696465454
-28.20533263969791
-27.73718036590547
-27.28058817515672
-26.83603959704219
-26.42398024684126
-26.07968004323297
-25.84352181667278
-25.74953385011088
-25.81510516260182
-26.03414398969427
-26.37502710245869
-26.78378849685283
-27.19208941645288
-27.52859548134252
-27.73159670658189
-27.76021932525827
-27.60157283682456
-27.27190303724413
-26.81137516655786
-26.27397333661986
-25.71524980543357
-25.18081804121637
-24.69785945953283
-24.2710488737217
-23.88346213375122
-23.5021959643224
-23.08757473142604
-22.60404204877636
-22.03030189034017
-21.36617249632256
-20.63420963737121
-19.87555592582867
-19.14121047307751
-18.48112054767294
-17.93371755102583
-17.51802288028132
-17.22972110872584
-17.0418549401338
-16.91001600074947
-16.78108121621042
-16.60378993728651
-16.33892713121285
-15.9667406553629
-15.48971412473662
-14.93005384882349
-14.32282307842858
-13.70678275652911
-13.11523316674633
-12.56872902227193
-12.07092779821989
-11.60823314533299
-11.15325850948796
-10.67142349077647
-10.12931439617623
-9.502951468916553
-8.783961452612902
-7.982043468342606
-7.123121135080038
-6.243867163142677
-5.384234601137643
-4.57986137947895
-3.855896020609323
-3.223289501878607
-2.678098715064987
-2.203835738971099
-1.776344256631274
-1.370154077354086
-0.9648744650356453
-0.5500655820096623
-0.1273306495021151
0.290839052086327
0.6849274894149204
1.033705038520908
1.319567841971921
1.532746558217647
1.673622818799392
1.752786262103164
1.78886718651742
1.804609294064102
1.822050245734038
1.857955099995941
1.920695996922755
2.009482955665409
2.11619303882957
2.229230935916398
2.338280682064815
2.438707779235009
2.534630203323323
2.640048523111904
2.777789726398014
2.976397108968967
3.265504639904411
3.670594215408672
4.208234557157488
4.882858799611051
5.685809057899658
6.596790362517153
7.587230443064407
8.624626386278525
9.676902461296317
10.71598756394664
11.7200763216254
12.6743113399341
13.5699361451033
14.40229619853009
15.16831531410905
15.86415587029568
16.48366162690582
17.0179193718018
17.45593160375233
17.78608430748007
17.99794419589783
18.08394702222335
18.04064814814188
17.86932003125885
17.57581182532298
17.16976835191464
16.663504575666
16.0709510594465
15.40704767306607
14.68777398830637
13.93075420433485
13.15616457289796
12.38755953989933
11.65223619312435
10.98086683385466
10.40629755132358
9.961563676814118
9.677282860175179
9.57868970359885
9.682699583179154
9.995484538232
10.5110210642147
11.21090029655233
12.06545326361761
13.03603928970925
14.07820429906114
15.14532281085127
16.19230146313856
17.17895573472034
18.07275422261255
18.85073071111148
19.50048824922409
20.02034869221449
20.41879069620925
20.71331949664749
20.92883635110971
21.09552727838499
21.24635788282055
21.41439291460044
21.63023650032406
21.91987771846076
22.30315884379685
22.79297438926752
23.39518717528495
24.10917483750669
24.92890494528413
25.84440227163693
26.84334740613511
27.91238504082869
29.03771034394278
30.2047728790985
31.39735134502499
32.59652799849867
33.78011345856714
34.92291618643306
35.99801228132109
36.97892836981151
37.84247305093802
38.5718441642352
39.15953474009488
39.60941288973539
39.93723720736095
40.16901476037793
40.33716367549727
40.47518674916923
40.61205186083701
40.7675064414509
40.94926700902266
41.15261628247393
41.36250261333993
41.55781471331333
41.717136328943
41.8249789893686
41.87723236680883
41.88444003434724
41.87176612859479
41.87535084133237
41.93585881495299
42.09079576776537
42.36732120556901
42.77699529084391
43.31340635584229
43.95304820181654
44.65924078203287
45.38839118700413
46.09748073813975
46.75130970455773
47.3278283415144
47.82013565720898
48.23464231997208
48.58613383567879
48.89134822675736
49.16285941198599
49.40471885972799
49.61075280469971
49.76580933151865
49.84969031498813
49.84303028551471
49.73397644034029
49.52415231950393
49.23217220530132
48.89326454775274
48.55459904512683
48.26731803946583
48.07727449107681
48.01668279002701
48.09848498496836
48.3145430151836
48.63798144042409
49.02925945720795
49.44492834714786
49.84751936443987
50.21457195248655
50.54458816837013
50.85808323651969
51.19315388623612
51.59665661784812
52.11328022060532
52.77507275419076
53.59358142547961
54.55604432887819
55.62622622301071
56.74965125496946
57.86225818780379
58.90089496041573
59.81354969294064
60.56692723358
61.14934378032245
61.56820915509028
61.84313018601619
61.99693443676166
62.04717310436188
62.00015106859969
61.8486974293517
61.57401874017236
61.15120923792946
60.55736331354758
59.78070879829863
58.82873151646228
57.7330398392705
56.5491303413539
55.3505362072463
54.21860310356878
53.23038327718932
52.44737362857322
51.90729548411293
51.62025971765281
51.56975224295164
51.71806081549059
52.01510112372265
52.4090480574325
52.8566885456046
53.33111878469388
53.82472701710154
54.34664161575953
54.91556812540978
55.55024919527534
56.26013010149427
57.03840965279203
57.85892423292781
58.67748676748665
59.43747719229236
60.07872080474617
60.54803458368706
60.80928341023106
60.85050006918621
60.68597685386869
60.35253488673835
59.90099855007322
59.38526841214637
58.85172227559213
58.33119554570356
57.83497494380077
57.35535919034324
56.87049439151787
56.35243854104365
55.77679251381223
55.13177370586065
54.42441358570682
53.68196288229059
52.94783691142204
52.27313290736203
51.70600824423225
51.28149975937151
51.01389761712274
50.89302250963284
50.88495848987498
50.93703790235165
50.98618498577119
50.9691338985723
50.83257899800135
50.54110117375876
50.08102953064369
49.45945324833725
48.69906377924573
47.83062929662368
46.88521401535671
45.887886939827
44.85400391238559
43.78847493449958
42.68785226694546
41.54459656826116
40.35248385410058
39.11181521241519
37.83297014275876
36.53712318296937
35.25377155472084
34.01581106628661
32.85365023289238
31.78995308504972
30.83621937397232
29.99185129557591
29.24578787341627
28.58027944625998
27.97597564765946
27.41724772607267
26.8965600886693
26.41676782314006
25.99057687006286
25.63715004089754
25.37673174292451
25.22473432614135
25.18675797065642
25.25565041776499
25.41118644344871
25.62239503491724
25.8520546622135
26.06247704848416
26.22146352264454
26.30726005311542
26.31146269790201
26.23921422114605
26.10672740615714
25.93693713191343
25.75452841548632
25.58155940430619
25.4345556704049
25.32349794138237
25.25266980817233
25.22293785089124
25.23475385960765
25.29102496714343
25.39898183341072
25.57029233787372
25.81902857138806
26.15776963901636
26.59286327123187
27.1202455661545
27.72307337819459
28.37193913711956
29.02783840333232
29.64748482763482
30.19010551118766
30.62455084913415
30.93542324730168
31.12695066379116
31.22353061981539
31.26639541338929
31.30677747315108
31.39696876386696
31.58123332578119
31.88844021793233
32.32775675489356
32.88806682839408
33.54110614992397
34.24769444725739
34.96593108089058
35.65984349208418
36.30676805740054
36.90178013898007
37.45798692139489
38.00256718371109
38.56970818750325
39.19238369252785
39.89495176427094
40.68806949151976
41.56677045930066
42.51190530507441
43.49455148197252
44.48247268274547
45.44728024953735
46.37064506638378
47.24783384742771
48.08729987286119
48.90624054519814
49.72349931142153
50.55208495844526
51.39351251110217
52.23544550913032
53.05322917075909
53.81511637805177
54.49034659984776
55.05870536887537
55.51976708104275
55.89974838778465
56.25391154285143
56.66308899265613
57.22435297822362
58.03762824621385
59.19119181334292
60.74905544940091
62.74247241622388
65.16674967174028
67.98348849046317
71.12743899460908
74.51639485730297
78.06204692729347
81.67950748515989
85.29337653959674
88.83899424735799
92.25906805228215
95.497656792751
98.49453807720212
101.1827818873553
103.4912512099442
105.3523688532677
106.7141906302409
107.5547196389371
107.895633197707
107.8124331172831
107.4385320257471
106.9617399661692
106.6129481987775
106.6485656081518
107.3299585123771
108.90386412217
111.5871115230327
115.557426483725
120.9502668460045
127.8599674236436
136.342256532039
146.4148260771984
158.0534723843233
171.1831635106224
185.6653557478783
201.2843560038426
217.736574490089
234.6271021031127
251.4775917219978
267.7475497011706
282.8684736936378
296.2879050124781
307.5186813195193
316.1869372624173
322.070978835707
325.1235178856933
325.4725450399129
323.4001184211958
319.3020765258008
313.6347556672715
306.857057704325
299.3768177306104
291.508720336214
283.4480809339651
275.2626700575301
266.9037289484949
258.2356624708278
249.0806022163603
239.2703020010623
228.6954610192014
217.3425460170461
205.310743764489
192.8063707375812
180.1174064974349
167.5746161067498
155.5066717933842
144.1957821189239
133.8398592912358
124.5277763168446
116.23394107916
108.8354378357891
102.1494901756956
95.98281980544326
90.18028351449493
84.66023840544462
79.42864590627373
74.57066092726599
70.22408212599584
66.54176028207759
63.650550293424
61.61432079251431
60.40841853467157
59.91194567110755
59.92132817166217
60.1838193693774
60.44371553722694
60.48939015912097
60.1885556407674
59.50342222116579
58.48435580446169
57.2464657470922
55.93630115970753
54.69614858893313
53.63266912033605
52.79535369336317
52.16850465986911
51.67812744998713
51.21217539990197
50.64917395812849
49.88738104218607
48.86617706203504
47.57433995912594
46.04478541723648
44.3393814287221
42.52908197308164
40.67441193992045
38.81028446079144
36.93775225413037
35.02384809962037
33.00931616794787
30.82270915383183
28.39792138208476
25.69106015476369
22.69246023575289
19.43117790563894
15.9717924222111
12.4053587897488
8.837157499805292
5.373791158135763
2.111692070618531
-0.8715459847483409
-3.522276985790066
-5.81219432890175
-7.736320933068081
-9.30839312023384
-10.55490660255783
-11.50928504425438
-12.20727356207972
-12.68392511956468
-12.97193087361918
-13.10079190611707
-13.09632282029411
-12.98009297447906
-12.76862508881504
-12.4724075236403
-12.09492213636305
-11.63194305961452
-11.07143741587608
-10.39453410929306
-9.578029241288267
-8.598541319629351
-7.437826577565227
-6.088291650938974
-4.55759689952729
-2.871352083034846
-1.073188271361071
0.7780703377014591
2.61390601657038
4.363611659010787
5.962777639105067
7.361380963708664
8.529783374823271
9.461036457806669
10.16871866745877
10.68081749721774
11.03119256751216
11.25051931204611
11.35847721509186
11.35855443506454
11.23629495825802
10.96121460221497
10.4920638356638
9.784617001862198
8.800644720846988
7.51624941012004
5.927670601759601
4.053326648028462
1.932018987709032
-0.3817925009063899
-2.824328991886333
-5.329186486655098
-7.83339426815187
-10.28219624331686
-12.63222338555137
-14.85292658209932
-16.92628403840687
-18.84500108812687
-20.6097064520678
-22.22587331984775
-23.70117283556042
-25.04370479536577
-26.26122749548454
-27.36126116886147
-28.35179536367535
-29.24230777948506
-30.04487269598954
-30.77517763103345
-31.45319685929155
-32.10316732952367
-32.75251805540566
-33.42959025165263
-34.16032223624671
-34.96444461966914
-35.85197566013855
-36.8208037612883
-37.85589878789057
-38.93033846020324
-40.00803350615142
-41.04783999400397
-42.00857996148025
-42.85428791580123
-43.5588321003401
-44.10906345913064
-44.50589646941479
-44.76318841770455
-44.90482102308646
-44.96080582978263
-44.96337193005915
-44.94381916665653
-44.93055683558546
-44.94840348237451
-45.01901188756435
-45.16213616086338
-45.39727269683038
-45.74502523319559
-46.22750594931137
-46.86728344795809
-47.68482100929846
-48.69489750889581
-49.90293878232097
-51.30229100981936
-52.87320595146051
-54.58385518059946
-56.39328233124188
-58.25593638892188
-60.12721345777292
-61.9691747079824
-63.75537730927304
-65.47371438793037
-67.12641985019005
-68.72699600980009
-70.29467864107875
-71.84784351622518
-73.3980715233327
-74.94627117612185
-76.48154712972918
-77.98282592131281
-79.42283916571058
-80.77380094399079
-82.01380258689308
-83.1326247660843
-84.13554029888314
-85.04391680575331
-85.89211312306738
-86.72121828090653
-87.5712087636446
-88.47356912102548
-89.4461162330747
-90.4909530921577
-91.59564758573315
-92.73718379330744
-93.88787450061254
-95.0220567542663
-96.12207590028768
-97.1820300479591
-98.20814375658556
-99.21548328022202
-100.2218602385879
-101.2407644889043
-102.2755063056607
-103.3162547467369
-104.3406561778977
-105.3177679114544
-106.2144623400367
-107.0031017406342
-107.6689350552988
-108.2154482090677
-108.6660960084873
-109.0615517482784
-109.4527095000181
-109.890891512969
-110.4176181368337
-111.056471492156
-111.8089214160242
-112.6548184957121
-113.5571664606127
-114.4700938810823
-115.3485048915757
-116.1574943730737
-116.879434172212
-117.51698902753
-118.0912504914271
-118.6354439070584
-119.1858928119206
-119.7727048597906
-120.4126684860649
-121.1060858555411
-121.8380471644233
-122.5835464956836
-123.3151869931023
-124.0118477562051
-124.6663554940017
-125.2901112614707
-125.9131042587183
-126.5788162024222
-127.3348740207932
-128.2215281760913
-129.2607289079659
-130.4484938976221
-131.7523925996715
-133.1146332110948
-134.4600139179475
-135.7072580787358
-136.7818170965915
-137.62784389374
-138.2168967840331
-138.5513643441203
-138.6616446682901
-138.5975415550277
-138.4158078742136
-138.1668094243208
-137.8834695363718
-137.5748639135078
-137.2254309588213
-136.7994308347016
-136.249450333631
-135.5272426510809
-134.5947550242714
-133.4330020779293
-132.0467918222506
-130.4642123143666
-128.731028544763
-126.9014362222111
-125.0275811489885
-123.1504849028257
-121.2943839084958
-119.4653074507383
-117.6536159070558
-115.8395656305649
-114.0005892684891
-112.1186564111136
-110.1859775538951
-108.2076747197901
-106.2008006867446
-104.190010775221
-102.2010585885468
-100.2538769790825
-98.35708935871693
-96.50527401673683
-94.67940545047624
-92.85011985080565
-90.98306157435049
-89.04535574975574
-87.01201936214538
-84.87102923038516
-82.62599577379348
-80.29587578463898
-77.91174880019156
-75.51129363894486
-73.13211809780321
-70.80532459052505
-68.55049345074531
-66.37275106230564
-64.26211530657712
-62.19506126830171
-60.13806118189192
-58.05257348801001
-55.90068418060204
-53.65045839535846
-51.28005517441281
-48.77983540600116
-46.1521071878872
-43.40871520434663
-40.56714827009836
-37.64600487780973
-34.66057134115164
-31.61917919182021
-28.52101498617446
-25.35599778171934
-22.10707814202169
-18.75486368799577
-15.28390491876251
-11.68941365560427
-7.982887083876008
-4.195266677262107
-0.3768117542913665
3.406458094505175
7.079338124509599
10.56618540963845
13.80058252153702
16.73431989068976
19.34399565210188
21.63377390015278
23.6334644693465
25.39206187816969
26.96796714363837
28.41790753542209
29.78679877285581
31.10047924355466
32.36258550404847
33.55604468269597
34.64883663378909
35.60287894937495
36.38423865724722
36.97252782258539
37.36739816591243
37.59060722584242
37.68316971439603
37.69832335421554
37.69199069466331
37.71287164386534
37.79425482504324
37.94918568371885
38.16990915887826
38.43164422507709
38.69987213947748
38.93958326763465
39.12446412608845
39.24392797816228
39.3063273748024
39.33762369680008
39.37591460293674
39.46314495961678
39.63587415044098
39.91711589312664
40.31099252163225
40.80131240337236
41.35434791682503
41.92524677765789
42.46679001909486
42.93869706867684
43.31547812159293
43.59110536157007
43.77952038381082
43.9109384982671
44.02476996231164
44.16067603447877
44.34973277855141
44.60768999058
44.93180935287808
45.30192042462724
45.68542619952342
46.04522265823354
46.34893430683906
46.57755836197941
46.73166967139436
46.83378241197271
46.92613016262911
47.06393789405056
47.30527049250992
47.69953108454525
48.27713886311471
49.04260382403128
49.97238956137658
51.01798673066386
52.11368620775688
53.18768556766175
54.17449298352192
55.02629138618066
55.72103760664128
56.26550326198603
56.69230032431761
57.05133385328584
57.39772534938753
57.77922855610654
58.22607715123853
58.74533738737406
59.32068746097913
59.91741516078747
60.49144158305921
61.0004435793376
61.41477040343712
61.72581564541207
61.94974873538848
62.12524429774257
62.30534874693065
62.54547296762784
62.89067921132301
63.36539203791801
63.96774889844245
64.66961563705425
65.42214160061792
66.16569492405009
66.84218846203484
67.4073296450154
67.84023406722999
68.14808906407103
68.36435687057981
68.54062914438737
68.7342250815402
68.99489300516122
69.3539515610181
69.81823871390002
70.36996245274099
70.97232637784585
71.57972436865235
72.15042141346406
72.65908202623321
73.10631223887039
73.52256618192266
73.964652763725
74.50496723724112
75.21589159299529
76.15329472935615
77.34306819663198
78.77357796301095
80.39550566775264
82.12915080631403
83.87794712555296
85.54580291161388
87.05505940021445
88.36142873104576
89.46230582387739
90.39582400365153
91.23035414378617
92.04709822669484
92.9203995401528
93.90053668914082
95.00257046777189
96.20315178185021
97.44557905243943
98.65195323379113
99.74005973256554
100.6416769553914
101.3184082482583
101.7710213974183
102.039255941218
102.1915854995427
102.3076660968791
102.4583885300086
102.6886470337321
103.0066421905196
103.3817013021582
103.7508108637714
104.032513480563
104.14556103518
104.0287558413195
103.6577709679177
103.054624706563
102.2865544623669
101.45376790852
100.6690287132111
100.0343767441091
99.62052867425689
99.45321631470331
99.50886765462094
99.72016323923536
99.99029076097813
100.2132585000526
100.2964824260023
100.1810613082312
99.85491815061788
99.35502591847397
98.75776148445415
98.16009134195029
97.65681486954911
97.31945865754689
97.18120134167755
97.23042655421317
97.41371990291914
97.64751075864427
97.83614641543775
97.89299040687686
97.76017437078687
97.4221745895798
96.90923046307076
96.28934972901715
95.65130809437058
95.08363838656197
94.65505100007645
94.40057388311098
94.3159572137225
94.36114882410972
94.47209837675032
94.57879845201101
94.62627074823716
94.59414100457492
94.50984220786852
94.45125480489732
94.5373774838823
94.90941969606014
95.70739889909218
97.04780496836796
99.0067203975815
101.6109835713978
104.8381645541597
108.6245117808335
112.8786697800323
117.4978563457076
122.3823458625456
127.4438408995987
132.6044381675906
137.785907839675
142.8927899975176
147.7952192659191
152.317368541928
156.2356078997415
159.2880235389964
161.1945241657024
161.6846767108503
160.5288418765582
157.5673055879713
152.7319699818785
146.0557775929691
137.6667899504008
127.7670665341614
116.6002468855877
104.4141372420831
91.42471384286108
77.78645988042705
63.57204455172707
48.76280161303283
33.2505478348855
16.85091229377042
-0.6720946117439797
-19.5721309911185
-40.08201354751715
-62.37803891526026
-86.55446239321013
-112.6127439413707
-140.4668468070958
-169.9634985285616
-200.9148509209405
-233.1396372225997
-266.5070720354401
-300.9751394664648
-336.6122920338822
-373.5912982586854
-412.1489810529253
-452.5158814813474
-494.8306504860593
-539.0594650503257
-584.9395424359262
-631.9604620796756
-679.3901054380896
-726.3446672663073
-771.8948177140936
-815.1927420379186
-855.5974464151758
-892.7702879952027
-926.7137794852738
-957.7381802952694
-986.360088973342
-1013.156761685511
-1038.610797981971
-1062.979962788585
-1086.219402344277
-1107.971926124079
-1127.628644572108
-1144.449148462616
-1157.718874636961
-1166.911571800549
-1171.819083986998
-1172.614310584941
-1169.829203732445
-1164.253300341217
-1156.779453619651
-1148.234337994035
-1139.230994599093
-1130.072684959473
-1120.724973335045
-1110.858627709696
-1099.952418265713
-1087.434155026701
-1072.830301531159
-1055.890347671133
-1036.655979434628
-1015.459297007737
-992.8544194297139
-969.504047168874
-946.050877238453
-923.0030618339875
-900.6563524382582
-879.065739770752
-858.0681329598661
-837.3475779579416
-816.5275238008951
-795.2700776730925
-773.3599001578789
-750.7530704430163
-727.5808066513872
