-11.39318775196429
-10.10819538243294
-8.864846858801906
-7.693987679175069
-6.627164004017975
-5.695670597134288
-4.928719266165847
-4.350800504501696
-3.978627675774127
-3.818274341830557
-3.86313890671215
-4.093234792776324
-4.476105637434028
-4.969426505443473
-5.525038934551728
-6.093829895538068
-6.630647096558676
-7.098421677954208
-7.470805696765086
-7.732898479373898
-7.880037416411265
-7.915082688567657
-7.844957203781194
-7.677294990281162
-7.417935012648569
-7.069776018265838
-6.63322182922217
-6.108076335786371
-5.496352241487436
-4.805196026732279
-4.049099566494525
-3.250728376960465
-2.439993505764724
-1.651407918080191
-0.9202150202977444
-0.2780923260664352
0.250699154213559
0.6520001457298407
0.9228017957660191
1.070464073375737
1.110246414384642
1.061678623100132
0.9445889172656328
0.7756574224708425
0.5661892802707671
0.3214894218476509
0.04182956408387253
-0.2753965253106725
-0.6330018687954002
-1.031544474225286
-1.467671183381067
-1.933657443506241
-2.418299046696188
-2.909020296057164
-3.394733411669655
-3.868740535186465
-4.330913214411387
-4.788509094333166
-5.255262767512775
-5.748799214177869
-6.286870236010563
-6.883234969846312
-7.544078342759525
-8.265713600433555
-9.03405252386456
-9.826006768147076
-10.61260482435983
-11.36322482472917
-12.05008038067275
-12.65202815521976
-13.15687698864948
-13.56166658120017
-13.8708535191755
-14.09288594127138
-14.23605715969917
-14.30466058615814
-14.29634937652324
-14.20134652016586
-14.00379923588999
-13.68510619903019
-13.22854746662136
-12.62421108115751
-11.87314736822081
-10.98984323009688
-10.00243865611328
-8.950592116697843
-7.881442706726947
-6.844519046135815
-5.886571556810532
-5.047184486428852
-4.355781842057707
-3.830356205836913
-3.477921622637231
-3.29634432849767
-3.276928772792529
-3.407006532890454
-3.671815531177354
-4.055188096265363
-4.538978941501108
-5.101629287221435
-5.716579967756592
-6.351298026847001
-6.967511243946634
-7.522972788440067
-7.974761799746348
-8.28375160785603
-8.419499563359045
-8.36459275593407
-8.117526005827527
-7.693446799237183
-7.12250029649352
-6.446003336156598
-5.711165817035525
-4.96538169622291
-4.251117088630289
-3.602186845918107
-3.041888147890943
-2.583131850378894
-2.230348210810517
-1.982557293161028
-1.836729714712945
-1.790540706975673
-1.843820375908707
-1.998359314104348
-2.256190076920412
-2.616919006787091
-3.074953272121225
-3.617452348543463
-4.22359435943503
-4.865434776232673
-5.510328547322299
-6.12457439542188
-6.677644073046136
-7.146179389049644
-7.51693733423489
-7.788024528264067
-7.968082892559465
-8.073557560395747
-8.124667811198234
-8.141005703584733
-8.137693500749986
-8.122806353491075
-8.096450692910151
-8.051547629781332
-7.976014925376675
-7.855746638166665
-7.677664762050915
-7.432165944555862
-7.114444425730564
-6.7244382693243
-6.265529531297949
-5.742515650183798
-5.159569620369591
-4.518838388927892
-3.820087917272761
-3.061533316342699
-2.241726639473003
-1.362083991047008
-0.4293948338482814
0.5423846336058904
1.531579823588979
2.509738477832305
3.443999244201276
4.300474440323147
5.047931929736352
5.660962990321701
6.12200334627769
6.421928673461097
6.559281476352316
6.538414393536389
6.367006907253091
6.053551954354224
5.605434976510843
5.028087660594162
4.325443361711843
3.501615368427941
2.56339931136601
1.522943552960113
0.3998505487975131
-0.7778885774172876
-1.974447840930923
-3.148235338955667
-4.255230269206874
-5.253091231345016
-6.105378069628504
-6.785218886469626
-7.277847403094658
-7.58157089819515
-7.706946342667402
-7.674288641089078
-7.510015876814523
-7.242575350929289
-6.898705337040043
-6.500636445567157
-6.064630909865381
-5.601019053727431
-5.115591001458326
-4.611896457426347
-4.093822894211912
-3.567808700766676
-3.044160225707514
-2.537164173706075
-2.064016958982732
-1.642937943929008
-1.291040869299253
-1.022532706790879
-0.8476510383337699
-0.7725455491692484
-0.8001010613358749
-0.9314835866413563
-1.167997101152252
-1.512729917899575
-1.97146873791605
-2.552461043692592
-3.264835774086158
-4.115847321303397
-5.107479474178908
-6.23317023739516
-7.475416309649797
-8.804840427377709
-10.18105137783345
-11.55532568477891
-12.87478236795898
-14.0873786887441
-15.14686710970836
-16.01687994287789
-16.67349091756321
-17.10589678851258
-17.31525726532364
-17.31214604199432
-17.11334250327384
-16.73873890617563
-16.20900739410575
-15.54447684155019
-14.76540985948046
-13.89346465025184
-12.953662335063
-11.97594203925649
-10.99552836562408
-10.05171995016021
-9.185134670196339
-8.433843846456096
-7.829147070096315
-7.391873170777119
-7.129972543127788
-7.03786506311871
-7.097678558608678
-7.282222105046668
-7.55924053356221
-7.896202939924313
-8.264724553147
-8.643796872603055
-9.02125341515
-9.39325722275241
-9.762029518778274
-10.13245895405897
-10.50848290133355
-10.89012339582083
-11.27184337997728
-11.64258250014632
-11.98748687913556
-12.29096686237092
-12.54038394244046
-12.72951622707818
-12.86100500061101
-12.94717267726649
-13.0089059993239
-13.07272932935071
-13.16665486360407
-13.31570013190668
-13.53799000108574
-13.84216175098453
-14.22650357493584
-14.67993726003675
-15.18458489630718
-15.71929992251385
-16.26334583828865
-16.79942584949675
-17.31543471865508
-17.80458704273794
-18.26398548832074
-18.6921405792935
-19.08625161163131
-19.44008273727862
-19.7430651102967
-19.98094933867775
-20.13797516185159
-20.20013146808882
-20.15876260348187
-20.01367818629583
-19.77502917588756
-19.46341726495256
-19.10800279574289
-18.74281138510545
-18.40191844710201
-18.11450576677533
-17.90080413129363
-17.76971271379659
-17.71855630693308
-17.7350557070064
-17.80112432721188
-17.89765935651982
-18.00926855535847
-18.12793819969362
-18.25490441328003
-18.40035698837806
-18.58106779513939
-18.81651393568563
-19.12439027259445
-19.51646728814297
-19.99559354768314
-20.55438498817885
-21.17582703877371
-21.83561812119068
-22.50567869164322
-23.15800478124986
-23.76802274272042
-24.31673792262979
-24.7912356491776
-25.18350344949987
-25.48801083752953
-25.69881948545106
-25.8070811311168
-25.79964877103816
-25.6592755414971
-25.36652845153384
-24.90309841749157
-24.25577288578861
-23.42015136439896
-22.40326549843318
-21.22449680916954
-19.91450602019809
-18.51231157340431
-17.06110448580041
-15.60368047358856
-14.17839103212192
-12.81631642567362
-11.54007795907643
-10.36438434685459
-9.298028323092806
-8.346689188748897
-7.51571565737592
-6.812119104585482
-6.245228836204941
-5.825797981686669
-5.563783111726024
-5.465445518171598
-5.530650714161554
-5.75116430359446
-6.110426618946085
-6.584917346329653
-7.146902818881546
-7.768061830245153
-8.423210371757794
-9.093231607490145
-9.766476504767532
-10.43826950249395
-11.1086036232612
-11.77855709447753
-12.44631302214897
-13.10378305590161
-13.73466785498988
-14.31442948838425
-14.8122715013664
-15.19488523964742
-15.43137449616541
-15.49844359494202
-15.38479379519183
-15.09381297714032
-14.64398490097692
-14.06689042681501
-13.40317757158818
-12.6973346092351
-11.99233629180765
-11.32515433128552
-10.72381270633721
-10.20629306969704
-9.78123455514988
-9.45001403335753
-9.209499368831969
-9.054682116260246
-8.980548471235306
-8.982824846924421
-9.057550323519292
-9.199763871531353
-9.401878956877127
-9.652413123123115
-9.935577169309765
-10.2319065882077
-10.51980838515492
-10.7776571260619
-10.98585907044428
-11.12816124602822
-11.19155893880311
-11.16446703443233
-11.03322640292897
-10.77741539490654
-10.36480726728002
-9.747072649305922
-8.85731343924419
-7.610165162844925
-5.904658972307949
-3.629524682834141
-0.6702471109124536
3.083071490219923
7.728111469070819
13.34395061930311
19.98650433731493
27.68596325845281
36.44597033397303
46.24394760487348
57.03190088854324
68.73731937185612
81.26437556866397
94.49623557806899
108.2995592303318
122.5319791410285
137.0525309201729
151.7339570604686
166.4748746432451
181.2091519002086
195.9095698561065
210.5832512293986
225.2577742239888
239.9592304011592
254.6859937527821
269.3837483334227
283.927832272397
298.118070818479
311.6890027669914
324.3349414814336
335.7454708993616
345.6440096230367
353.8207205205338
360.1514429962099
364.5968166571259
367.1805292593177
367.9514590111662
366.9390542097141
364.112892266797
359.3560558572263
352.458960813481
343.1363353004307
331.0651940099966
315.9365805925305
297.5104181870087
275.6622605969129
250.4128433375779
221.9355421264138
190.542553733478
156.6560929829253
120.7737029594482
83.43578405961767
45.19990923876529
6.622799768062189
-31.75159655207289
-69.40082324185227
-105.8329537456957
-140.5990106605104
-173.3099256397761
-203.656354338695
-231.4268425838868
-256.5180549963858
-278.9310192192269
-298.7502292027328
-316.1074727155611
-331.1374847351033
-343.9356212120738
-354.5274703582103
-362.8572380232247
-368.7974238059812
-372.1780416819909
-372.8299125953338
-370.6335392137321
-365.5633759282284
-357.7178061943199
-347.3281132711677
-334.7445099258879
-320.4026089822894
-304.7780890276817
-288.3393852380125
-271.5074023577847
-254.6282039954101
-237.9610166532605
-221.680938297691
-205.893536596085
-190.6567583618112
-176.0045484673961
-161.9668842434581
-148.5825854973427
-135.9036119816986
-123.9918366468489
-112.9109377037127
-102.7167500033497
-93.44902341052759
-85.12632436959993
-77.7444725606867
-71.27799616475704
-65.6836244383175
-60.90458067981083
-56.87442501256423
-53.51960577932741
-50.76061828235042
-48.51236057947146
-46.68460054220312
-45.18340346899978
-43.91407639877816
-42.78574825485646
-41.71712673144778
-40.64241629209059
-39.51613858342806
-38.31575075579399
-37.04134642914602
-35.71224153708305
-34.36089436468533
-33.02526281430971
-31.74108952872801
-30.53555410731776
-29.42332949489102
-28.40554878721321
-27.47164677473752
-26.60348981146334
-25.78073478597508
-24.98613833349719
-24.20961905266735
-23.45017096948306
-22.71520116403789
-22.01751141877634
-21.37079902370823
-20.78493158623791
-20.26219767785139
-19.79535491449308
-19.36782762713143
-18.95597752725886
-18.53296616390465
-18.07337432029062
-17.55756763114552
-16.97486082675668
-16.32478980006153
-15.6162270769859
-14.86464598605068
-14.08838141450008
-13.30499074354858
-12.52866569124002
-11.7692116537388
-11.03264502851073
-10.32310715476332
-9.645535978240506
-9.008345010502625
-8.42529867563173
-7.915902190692352
-7.503923815155244
-7.2141023512375
-7.067605982126695
-7.077239513982458
-7.243537186232002
-7.552649944732687
-7.976474321550152
-8.47499995590188
-9.000490084423559
-9.502824568550231
-9.935115953857098
-10.2586403209981
-10.44626466934045
-10.48386246308142
-10.36963402778366
-10.11173093951151
-9.724982158918253
-9.227652706942688
-8.638977029949952
-7.977837289571095
-7.262605824278734
-6.511923386118654
-5.745989387368502
-4.987781195619005
-4.263581822316695
-3.602339354554733
-3.033675660812951
-2.584754475488784
-2.276640677235343
-2.121078543359948
-2.118608245593185
-2.25859098241876
-2.521193977401435
-2.880944886514965
-3.311212930473619
-3.788829210288841
-4.297945822690353
-4.832249631189113
-5.394920156045861
-5.996214874237906
-6.649128377060248
-7.364063147454862
-8.143730198813792
-8.979439690950116
-9.849547506913032
-10.72028502999663
-11.548754856399
-12.28758762604191
-12.89050653714478
-13.31780695645317
-13.54070833865995
-13.54380817948032
-13.32535567533957
-12.89557455355455
-12.27368616423619
-11.484521934916
-10.55556817907695
-9.514968552369604
-8.39060196586008
-7.210060552956389
-6.001208059087277
-4.792900086786824
-3.615366450693386
-2.499792388797669
-1.47684271957531
-0.5741843126414462
0.1866041880732068
0.7930555768475855
1.243955822248282
1.549930896506964
1.732207968894772
1.819764544707092
1.8454367405574
1.841707920834126
1.836888239078624
1.852287829882244
1.900812806489316
1.987193571669419
2.109788461593852
2.263576944915664
2.44361968354342
2.648079936558165
2.880022681124751
3.147614693839825
3.462841119551527
3.839217525640009
4.289142366860341
4.821548256872666
5.440399747650665
6.144357240945464
6.927636210751479
7.781808378000111
8.698043894011656
9.669116265819019
10.69048453801084
11.76001990614361
12.87640773513636
14.0367281972974
15.23398777697993
16.45537687941359
17.68183974158656
18.8892493885532
20.05114015375503
21.14261675750707
22.14477077508266
23.04871510118621
23.85825522906792
24.59036191242334
25.27305589911172
25.94097029103455
26.6294783903171
27.36861667084986
28.17800356020209
29.06365053059336
30.01714467275163
31.01725433901562
32.03359329185253
33.03158499320799
33.97766784615919
34.84359602096693
35.60891346807837
36.26119785899738
36.79433662061825
37.20567280109519
37.49313693610201
37.65338069215886
37.68151782401846
37.5725476197719
37.32409408218908
36.9398229340815
36.43274104034157
35.82750099678243
35.16090501191692
34.4801239668316
33.83869916169485
33.29100961939787
32.88634000168071
32.66381544968117
32.64926037044957
32.85457370586641
33.27963282607109
33.91619506237465
34.75285959522983
35.77990990540046
36.99281109026642
38.39336247670619
39.9880372496845
41.7837783263811
43.78224287501954
45.97395534163729
48.33389590481173
50.81971454382717
53.37313595975134
55.92441145324459
58.39908179715524
60.72590580216495
62.84454690921041
64.71153714794588
66.3032895120827
67.61555147369647
68.65953904056155
69.45580893828333
70.02748101393786
70.39455394601403
70.57068564366355
70.56301405749812
70.37469805709239
70.00923922045969
69.47539060321867
68.79139466963314
67.98734716013378
67.10477946026793
66.19315832274708
65.30378723336663
64.48232049580837
63.761559892551
63.15626208171832
62.66127711476371
62.25352166982872
61.89734627046768
61.55215886565221
61.1808536206027
60.75752292994912
60.27300433111989
59.73711683618814
59.17704512763255
58.63213864639388
58.14619496138717
57.75887738918374
57.49811113486697
57.37502174607036
57.38228409254121
57.49591090992175
57.67985191332657
57.89239201822346
58.09310790201228
58.24901661263125
58.33864595081781
58.35317302632657
58.29446140490516
58.17060615612432
57.99024731693617
57.75721458352618
57.46688103882682
57.10500230607061
56.64910668151645
56.07198768623071
55.34656470463452
54.45116623308412
53.37412198459189
52.11656842320927
50.69269356158017
49.12723610009795
47.4507582468749
45.6938206574267
43.88148346939497
42.02939876831913
40.14221257623836
38.2143517053975
36.23282409249735
34.18144319963123
32.04573980424014
29.81767383983862
27.49919978400703
25.10389405846009
22.65624573784809
20.18874885902473
17.73744602348541
15.33688686852537
13.01549214098813
10.79210060530123
8.67417013007825
6.657831986425648
4.729768087222515
2.870637569416764
1.059508732856866
-0.7214805362299214
-2.483104414693429
-4.226421223564878
-5.941960574529192
-7.610753550367254
-9.20692644577107
-10.70141526406496
-12.06625459286802
-13.27878018582638
-14.32503058326431
-15.20175048036154
-15.91668425271493
-16.48721332848976
-16.93775120128276
-17.29657323587582
-17.59282114563757
-17.8542526558416
-18.10600420026146
-18.37035526195644
-18.66730547281646
-19.01566077051129
-19.43421964003307
-19.94257280752845
-20.56103262306992
-21.30933525224217
-22.20404544003094
-23.2550167224033
-24.46167157218123
-25.81006231892068
-27.27155681752143
-28.80364253757541
-30.352925307608
-31.86002001857601
-33.26570615771783
-34.51747032890187
-35.57543308089407
-36.41667956494552
-37.0371841423902
-37.45088216058924
-37.68601197376125
-37.77948081727651
-37.77044320871256
-37.69435664423688
-37.57854293337004
-37.43990234069463
-37.28500949039732
-37.11237293655387
-36.91620688824769
-36.69076450086303
-36.4341914984756
-36.15097160722912
-35.85236644740208
-35.55480576816307
-35.27680855239291
-35.03543711149418
-34.84332245534618
-34.70700364602454
-34.62690261705593
-34.59886035629685
-34.61681449465758
-34.6759193984115
-34.77526769306824
-34.91940193974707
-35.11799927377066
-35.3835001950382
-35.7270373680056
-36.15362961995201
-36.65794941487713
-37.2218737430365
-37.81457560194647
-38.39534985677076
-38.91884712521404
-39.34190779033725
-39.63077547694096
-39.76727846877004
-39.75269315821429
-39.60839218684013
-39.37296783104703
-39.09626288842772
-38.83146805843189
-38.62687616907395
-38.51884761738111
-38.52712630331178
-38.65309730457982
-38.88105604056749
-39.18206318852863
-39.5195073865976
-39.8552111498801
-40.1548742996987
-40.39183228049984
-40.54850971760685
-40.61556753550045
-40.58941210972277
-40.46916350979009
-40.25417887552633
-39.94287395298125
-39.53312187431094
-39.02408740599668
-38.41897020271902
-37.72779985831573
-36.96927899256063
-36.17078862545954
-35.36601132999826
-34.59015288018667
-33.87341438972794
-33.23400002017659
-32.67223858426792
-32.16717456989321
-31.67636372515485
-31.1388961204531
-30.48107795989066
-29.6237437019307
-28.48983596370625
-27.01078002165125
-25.13036434524876
-22.80528747209094
-20.00220138962893
-16.69189832341511
-12.8420188899868
-8.40997624274208
-3.337529697630715
2.452220155962984
9.055304493648944
16.58509204103886
25.16859750164039
34.94124596056574
46.04034382486257
58.59727149326248
72.7281081769059
88.52226229795819
106.0289824676496
125.2424463557078
146.0872514106827
168.4071551207767
191.9604320323112
216.4249043344681
241.414328256631
266.505478821897
291.272624061329
315.3239088941402
338.3327924624996
360.0572478654849
380.3406253395228
399.0915950147958
416.2458459585526
431.7173416730034
445.350100950191
456.8820200263671
465.930421413711
472.0050628372848
474.5485688227045
472.9979826353591
466.8564270729157
455.7617498019521
439.5393585058572
418.2293604627637
392.0838443484806
361.5372689205477
327.1585932702148
289.5959985167522
249.5240774846538
207.6007787393833
164.4381961976872
120.5876336461626
76.53589233166184
32.70789262052002
-10.52875308357635
-52.85950266464426
-94.01869034821401
-133.7828813956454
-171.9584490900386
-208.361473594777
-242.7915078849763
-275.0045659906443
-304.6928532100913
-331.4783383056454
-354.9247260330376
-374.5687644315799
-389.9679380617186
-400.7579274105082
-406.7102333395155
-407.7789210363069
-404.1264712609649
-396.12247128562
-384.314497727675
-369.3765001795515
-352.0445879525106
-333.0519929111692
-313.073698437899
-292.6876462955273
-272.3552339490158
-252.4202790448867
-233.1229589182856
-214.6232283199306
-197.0271849224858
-180.4103458160969
-164.8337668096545
-150.3516004647472
-137.0111360110707
-124.8480101034274
-113.8798787139893
-104.1013914626367
-95.48212965733764
-87.967892433817
-81.48483415350366
-75.9454561865549
-71.25514102753998
-67.31786042080446
-64.04007969520634
-61.33261981923852
-59.11095652735069
-57.29482370264673
-55.80800420405824
-54.57896270036344
-53.5425917352532
-52.64285615603828
-51.83568881023015
-51.09129653811978
-50.39508479720313
-49.7465965553216
-49.15618730375314
-48.63967282598214
-48.21177642592131
-47.87961054580039
-47.63747762255156
-47.46400471684422
-47.32219101922201
-47.16243587026926
-46.92805486804809
-46.56230040741176
-46.01564709762978
-45.25210629741709
-44.2535176532236
-43.02112917735582
-41.57434902236631
-39.94719929339298
-38.18346365414004
-36.33162552350722
-34.44049018764812
-32.55604674201171
-30.71977152867469
-28.96823002645526
-27.33354803548421
-25.84417060933895
-24.52531449228247
-23.39862634757975
-22.48082739314059
-21.78156587858977
-21.30115572060814
-21.02910198169372
-20.94416218896393
-21.01625555549984
-21.2100467785726
-21.48966653527394
-21.82378675681816
-22.19011493596381
-22.57837357116987
-22.99105424056945
-23.44164074092651
-23.95049633096637
-24.53912971188951
-25.22397378078619
-26.01096583610676
-26.89201740676845
-27.84400225603959
-28.83039560580598
-29.80529117856505
-30.71914039417357
-31.52517549152208
-32.18527941813738
-32.67421705461615
-32.9815678968927
-33.11121749702151
-33.07877148002831
-32.90767451902082
-32.62502046410938
-32.25794590612782
-31.83118450711184
-31.36600180346334
-30.88042215368952
-30.39036877526941
-29.9110859221131
-29.45813038636075
-29.0473659203158
-28.69368583945531
-28.40854701350703
-28.19679153116854
-28.05356643726947
-27.96226228008137
-27.89418830673116
-27.81028155905702
-27.66471139133286
-27.40989989851038
-27.00220216411483
-26.40728589980569
-25.60423684977539
-24.58765393299328
-23.36740042712961
-21.96613969735128
-20.41524573981447
-18.75004268795167
-17.00544427230507
-15.21285205861499
-13.39872617559304
-11.58479079304007
-9.789533153081107
-8.030469973324482
-6.32651921420617
-4.699771722819334
-3.176085801224561
-1.784220982254644
-0.5536111733326141
0.4887368988231834
1.321458368292894
1.9313527030412
2.314650199767751
2.476893885082473
2.431719519847595
2.199014330154776
1.802913373978997
1.269990568326502
0.6279191158832453
-0.09521169343539493
-0.8708883400992857
-1.669647963258264
-2.460407949751568
-3.21012449383328
-3.884201914878169
-4.447860280740756
-4.868370860731144
-5.117826107316685
-5.176007047026938
-5.032890230937091
-4.690315440771106
-4.162369045600395
-3.474244972747317
-2.659700169150015
-1.7575555323066
-0.8078733749246709
0.1515534193079524
1.087907688846995
1.975006162261772
2.793947370137003
3.532978985689982
4.18683917184932
4.75576098604275
5.24431642089661
5.660315994655402
6.013933980737142
6.317055102718427
6.582664189985373
6.82406313871921
7.053810854248092
7.282457702298935
7.517299525560138
7.761462219412204
8.01362309019348
8.26855466726912
8.518453210284969
8.75478561772515
8.970267092351046
9.160577939307197
9.325477848127225
9.469068599137932
9.59913649041496
9.725760526899865
9.859594099020283
10.01031372711995
10.18567017660593
10.39142711681802
10.63225533969547
10.91337835204774
11.24251805862594
11.63156949217622
12.09744649334106
12.66163904586898
13.34823718519069
14.18055802841704
15.17697496857419
16.34687707461051
17.68772331198371
19.1839205705676
20.80787891123374
22.52317263991455
24.28929169341131
26.06708741714227
27.82382537089061
29.53678331792695
31.19453231868051
32.79544704108412
34.3436499598961
35.84334304003762
37.29298898186988
38.68084820374539
39.98302056759945
41.16460420250094
42.18397179453792
42.99945045884719
43.57700364958419
43.89716775996519
43.9596313909969
43.78431946837518
43.40854050491382
42.88065769861946
42.25167125939683
41.56666921805349
40.85806460304412
40.14199739913337
39.41855333377777
38.67570814394571
37.89612348840814
37.06520022366773
36.17843426480287
35.24626492381226
34.29513295546663
33.36427079537609
32.49879289170055
31.74069766223086
31.11999057765523
30.64801766605012
30.3144105862943
30.08818619826242
29.92276523253337
29.7639652369008
29.559399167262
29.26736364018522
28.86336171088438
28.34284336453806
27.71954127654285
27.01987981681087
26.27503054649069
25.51279377805346
24.75134295549153
23.99615478443692
23.2405809896297
22.46976509522049
21.66696518134433
20.82080247294636
19.93167145857216
19.01564794797905
18.10469909801509
17.24279737299952
16.47858757906465
15.85624744902815
15.40668582864172
15.14102587748955
15.04760610390129
15.0928964085964
15.22602902243352
15.38607689706479
15.51073766549077
15.54482113156165
15.44701158755743
15.19375494976644
14.77973444045948
14.21517110143065
13.5209142602984
12.72268942435287
11.84581837398594
10.91135191628792
9.93410627314039
8.922697617797798
7.881298968396612
6.812502819084485
5.72047432750091
4.613591718980047
3.50594221493403
2.417320449369089
1.371739653276325
0.3948263017922565
-0.4893118944409823
-1.261136944869939
-1.908167230792158
-2.426584564662044
-2.821798264643496
-3.107930502621592
-3.306302199640833
-3.443107393120592
-3.546565110718027
-3.643921004427921
-3.758713523780472
-3.908701610635991
-4.104772074394176
-4.351007498885981
-4.645895485815876
-4.984427592724601
-5.360660525258377
-5.770263384689549
-6.212619983483576
-6.692113606354273
-7.218284026975738
-7.804673773798491
-8.466407549544432
-9.216846346119016
-10.06395468263396
-11.00721428730437
-12.03590182821322
-13.12927399568584
-14.25875333891782
-15.39176601553761
-16.4965867150544
-17.54740164046716
-18.52875397844775
-19.4385696433268
-20.28908989033339
-21.10529600716241
-21.92084249747538
-22.77208681032298
-23.69133639557071
-24.70068450959624
-25.80764851012714
-27.00335382948258
-28.26346173442759
-29.5515868723988
-30.82458365123928
-32.03875994947661
-33.1558746665366
-34.14779190025598
-34.99891988087619
-35.70603677715583
-36.27573934332792
-36.72036525674869
-37.05358408097302
-37.28679237860874
-37.42708415159382
-37.47712606343998
-37.43687825496212
-37.30672091626958
-37.0911491069187
-36.80193086038143
-36.45965049399614
-36.09289149921601
-35.73487937614036
-35.41810888410441
-35.16812462464335
-34.99794076765323
-34.90443749524115
-34.86757330561623
-34.85266323594615
-34.8154586439171
-34.70930227258056
-34.49319491151027
-34.1393196187743
-33.63857516474026
-33.00300139480069
-32.26459345490517
-31.4708075249495
-30.67783484261721
-29.94316580663576
-29.31892372995129
-28.84702336502249
-28.55666778529033
-28.46422688872327
-28.57513861814076
-28.88709532637754
-29.39350248258862
-30.08615470993436
-30.95631062682016
-31.99383762203712
-33.18475170133461
-34.50808182377087
-35.93326863313855
-37.41913688374527
-38.91499563612332
-40.36389394072442
-41.70763251353983
-42.89273747686082
-43.87622611514259
-44.62983014663852
-45.14155003437112
-45.41392679829699
-45.45909352899142
-45.29140705505432
-44.91908727436919
-44.33655272509434
-43.51891524449893
-42.41953347743249
-40.97089411628153
-39.08852053827385
-36.67708422658228
-33.63748564948678
-29.87355951317159
-25.29729459583562
-19.83191407516252
-13.41272290631653
-5.98620425915611
2.491756538909793
12.05764884741729
22.74167380388802
34.56878857590914
47.55996942336782
61.73414679549584
77.11087113300943
93.71323336163499
111.5699816172572
130.715167992609
151.1832124250152
172.9974361530111
196.1513158123495
220.5838710292539
246.1530567180498
272.6129041228736
299.6008161047118
326.6406165397471
353.1645714903606
378.5537623824877
402.1917688384933
423.5230221023338
442.1052606468164
457.6453747505597
470.0099795756768
479.206867842324
485.3402927128564
488.549498875165
488.9438206124163
486.5482692221931
481.2713709670306
472.9026365694885
461.1407575223165
445.6467246536978
426.1108615440399
402.3206004026989
374.2163897756566
341.9260170572915
305.7727413272664
266.2587299322187
224.0300404918348
179.8312340349238
134.4569886438324
88.70620263649204
43.34197742632797
-0.9412276215754143
-43.54366044774741
-83.98045793183609
-121.8960074612768
-157.0711285407743
-189.4206018148333
-218.9783928499944
-245.8691159802981
-270.266990932404
-292.3471654656034
-312.2374421809635
-329.9797242334187
-345.5092853077201
-358.6566911563235
-369.1728467700423
-376.7732985664963
-381.1943234254826
-382.2508361339856
-379.8851972875945
-374.1972468674475
-365.4494828125183
-354.0465176153666
-340.4934564082666
-325.3421622638906
-309.1362507616461
-292.3646016820982
-275.4298897699074
-258.6346614202109
-242.1841091145545
-226.2022012871522
-210.7560013184486
-195.8820534677219
-181.6091089736316
-167.9732185456279
-155.0236977060347
-142.8208904785945
-131.4284332466472
-120.903494779051
-111.2881134045656
-102.6035718225915
-94.84843662905564
-87.99995619523948
-82.01791436632493
-76.84959307279702
-72.43434601335922
-68.70666048171043
-65.59736883778878
-63.03345792137858
-60.93738724618803
-59.22690902148024
-57.81618267418035
-56.61855526415686
-55.5507939235118
-54.53800959103928
-53.51824351517112
-52.44572774211682
-51.29205269547182
-50.04484531258885
-48.70410893368154
-47.2769822961535
-45.77208702930256
-44.19469053889075
-42.54367253915262
-40.81090628147913
-38.98320288684282
-37.04639493029919
-34.9905778869736
-32.81524375538762
-30.53313133054521
-28.17195864499544
-25.77367505081404
-23.3914274314695
-21.08495981275933
-18.91545750434303
-16.94079337691341
-15.21182437995066
-13.77003454954019
-12.64656100403719
-11.86242582199168
-11.4295546866164
-11.35196665305865
-11.62651058028458
-12.24273582970477
-13.18184033451708
-14.41503351898997
-15.90196366498447
-17.58996492526028
-19.41472845860915
-21.30267662152395
-23.17497850855501
-24.95287808671395
-26.56376548229019
-27.94717276910259
-29.05972379286171
-29.8781379928746
-30.39968133954283
-30.63990536633562
-30.62804346966921
-30.40091482872967
-29.99645973861664
-29.44802152613364
-28.78026426092814
-28.00729062421565
-27.13315035746572
-26.15449356259129
-25.06468503129717
-23.85841702698691
-22.53583962967135
-21.10542972545251
-19.58516524513431
-18.00199829675995
-16.39001730984612
-14.78790792264014
-13.23630076781083
-11.77540543656303
-10.44311799951876
-9.273641022329764
-8.296543405406826
-7.536064620187237
-7.010367181825082
-6.730440790466065
-6.69850068290689
-6.905985129379066
-7.331569169783388
-7.939839545387482
-8.681289260103329
-9.494059239638043
-10.30747950142892
-11.04710447856274
-11.64068837205873
-12.02437838433767
-12.14828649557283
-11.98060272558163
-11.50961035553168
-10.74332931948216
-9.70695773978237
-8.43870608392269
-6.984905142555077
-5.395306377181772
-3.719266132973831
-2.003135413056866
-0.2888464032986001
1.386514286441612
2.990487182439756
4.494841873957492
5.875506938241983
7.11318393008496
8.194676322889457
9.114599845424832
9.876872173455752
10.49530519800767
10.99279675491923
11.39900911563784
11.74687759379084
12.06860188509158
12.39182460734729
12.73659184220953
13.11357561322362
13.52391027760981
13.96073203042615
14.41211016792725
14.864676801653
15.30706062454238
15.73228523980409
16.1385971164748
16.52865689861347
16.9074993323122
17.27996964288527
17.64839676791756
18.01111250561964
18.36217886140704
18.69242707183114
18.99166399906302
19.25165426552505
19.46925787898273
19.64897462411282
19.80421567203446
19.95691743842848
20.13555142873067
20.37200795889842
20.69808628253328
21.14234215758449
21.72786775750888
22.47130093355585
23.38305815558188
24.46849723900851
25.72947056823149
27.16558325392239
28.77450321732855
30.55092721326258
32.4842481110797
34.55546767143825
36.73428296926456
38.97738969823254
41.22882983992776
43.42274000410097
45.48831452897847
47.35635498846664
48.9664756099064
50.2738330175445
51.25418446557529
51.90627000400539
52.25100534754041
52.32764761752125
52.18775428885446
51.8882173047967
51.4847986923115
51.02736273246017
50.55745244334124
50.10821236014318
49.70615041094493
49.37391465828689
49.1330701017161
49.00582850521801
49.01493927306711
49.18150885269596
49.52120078449259
50.03982816540218
50.72961344785926
51.56730608499486
52.51494587250896
53.52343620079109
54.53843229023209
55.50754347557579
56.38754909874978
57.15020853953943
57.785376384419
58.30063516980514
58.71748273630693
59.06498618879562
59.37242573471191
59.66264163574272
59.94758401661046
60.22700954667975
60.49044287169121
60.72164768345512
60.90427000519613
61.02716667162434
61.08808528678861
61.09471365938432
61.0627124461185
61.0111475262175
60.9564894126938
60.90674670306681
60.85725683051916
60.78929106546298
60.67204799023268
60.46782286748144
60.1393032017139
59.65739930717401
59.0079505418037
58.19591311146424
57.24609264773998
56.20015573123041
55.11049192758509
54.03224374027862
53.01519324566524
52.09711459106194
51.299798199135
50.62836359059244
50.07377801602316
49.61782703056671
49.23933742356385
48.92028715565525
48.65047506468747
48.42967429182693
48.26673822508626
48.17589372152571
48.17117867363688
48.260402211809
48.44004368534042
48.69222449974815
48.98437646561137
49.27161610153341
49.50131911724903
49.61910261919844
49.57527787426534
49.33071987870575
48.8611017164265
48.15872785571514
47.23175219576637
46.10117264131933
44.79643949427844
43.35071260192519
41.79676214038557
40.16423880707597
38.47857521657125
36.76129841615526
35.03126472106097
33.30630700142148
31.60484561515869
29.9470467181485
28.35516873019225
26.8528990828637
25.46373436614009
24.20871253261201
23.10398393160902
22.15875798427719
21.37406148779792
20.74252593587564
20.24919518745375
19.87321219308082
19.59018563798786
19.37496003353643
19.20438235330012
19.05954243651923
18.92696494705077
18.79840624330943
18.66923370091454
18.53572903308037
18.39191736433328
18.22658767903805
18.0210722040961
17.74821600040683
17.37286014763211
16.8540261741357
16.14874650619505
15.21714099515287
14.02798643559071
12.56379879829985
10.82446374748281
8.828737515385772
6.613391503203314
4.230199305460439
1.741232875181594
-0.7869220154244119
-3.28929506567008
-5.708154711418711
-7.99727096272122
-10.12415069563068
-12.06995976256444
-13.82735292661796
-15.39691231462979
-16.78316444208605
-17.99111625055442
-19.02399204974969
-19.88251648212668
-20.56576088977726
-21.07324084413071
-21.40763664357414
-21.57731345662274
-21.59782747469551
-21.49181166913576
-21.28701925811752
-21.01282962441884
-20.69603449449933
-20.35698496751976
-20.00707103497202
-19.64812659195375
-19.27391571782589
-18.87346388742855
-18.43561178457612
-17.95381478946884
-17.43006198238772
-16.87695460958993
-16.31738386965868
-15.78176299122618
-15.30333710182908
-14.91259931298262
-14.63208076529284
-14.47263549492011
-14.43190465627893
-14.49514762676883
-14.63820915988638
-14.83203435987421
-15.0478399946591
-15.26189615657094
-15.45893379724705
-15.63345163914427
-15.78863844537194
-15.93322836555516
-16.07719986127453
-16.22754534237214
-16.38523145110655
-16.54404035140155
-16.69147264984769
-16.81145646862369
-16.88824462174265
-16.91060038216286
-16.87526458916199
-16.78881163601612
-16.66729955496242
-16.53357841158278
-16.4127165406789
-16.32657078145307
-16.28880254156819
-16.30149004452577
-16.35402470361738
-16.42445183782687
-16.48296313939351
-16.49686024110376
-16.43600759739149
-16.27769383930556
-16.00996613837604
-15.63281489656754
-15.1570143929482
-14.60095216744386
-13.98628192203925
-13.33349236367848
-12.65838151498077
-11.97006685525036
-11.2707542142419
-10.55713825797709
-9.822998473961619
-9.062309683763829
-8.27209756289798
-7.454362016711325
-6.616612095870352
-5.770889987603489
-4.93159568102767
-4.112822560013163
-3.326069859127072
-2.579023737133161
-1.875716038900901
-1.217991812209706
-0.6079508886967848
-0.05082927896986207
0.442382936425017
0.8533413397285852
1.156359170594125
1.320285734753439
1.312076506681488
1.101450590836777
0.6657184684523609
-0.006200110178019854
-0.9113269455078556
-2.032115633608647
-3.33787282819044
-4.787821433122646
-6.335309583686441
-7.932507331474773
-9.534849006091546
-11.10450813522154
-12.61234135106161
-14.03802616086878
-15.3685306980561
-16.5954639618388
-17.71208580231568
-18.71074155042505
-19.58131476795534
-20.31107406917164
-20.88602789322017
-21.29354711166367
-21.52564447309799
-21.5820887444337
-21.47255397192307
-21.21719678450999
-20.84537188857831
-20.39262575279816
-19.89654404045036
-19.39229120362351
-18.90868803719896
-18.46549550976929
-18.07232146054083
-17.72927759952537
-17.42918492909186
-17.16081473068634
-16.91245338078667
-16.67501956825641
-16.44403303241795
-16.21997510260513
-16.00700644432096
-15.81048155461724
-15.63401352394323
-15.47689735693831
-15.33255923276177
-15.18847043678761
-15.02768044386567
-14.8317751206828
-14.5847194977257
-14.27682067612458
-13.90799335159611
-13.48960640479174
-13.04444265284248
-12.60472038872672
-12.20859259878024
-11.89586805649344
-11.7037818860968
-11.66352629105839
-11.79804292805974
-12.12132562473916
-12.63916378293026
-13.35089732455888
-14.25148354792006
-15.33311252951377
-16.58575396675751
-17.99632656327426
-19.54660423031026
-21.21040678984296
-22.95090741354997
-24.71893191532408
-26.45296933800584
-28.08135746372561
-29.52677012586104
-30.71266840118383
-31.57085371617954
-32.04890116582124
-32.11620297919134
-31.76756711537097
-31.02371749625387
-29.92860666905236
-28.54407817674773
-26.94290081907689
-25.20139523061729
-23.39280223636222
-21.58230309954612
-19.82424593496482
-18.16166904268682
-16.62772380921052
-15.24823669084981
-14.0444878531069
-13.03531439406131
-12.23788150397885
-11.66691008326122
-11.33267949467704
-11.23852008258906
-11.37862740420773
-11.73689121893339
-12.28716050765289
-12.99505408052226
-13.82109935263464
-14.72467754524626
-15.6680521731384
-16.61970285352134
-17.55627340478787
-18.46269294104332
-19.33045678251865
-20.15455633268405
-20.92991905423499
-21.6483172832367
-22.29654963475475
-22.85640767488533
-23.30657554915472
-23.62617432543625
-23.79923593198846
-23.81912924088888
-23.69192834241374
-23.43786593546181
-23.0903400947471
-22.6924540267805
-22.29166263245586
-21.93355755548876
-21.65597721568835
-21.48448678489471
-21.42995763835568
-21.48857068577062
-21.64409126201969
-21.87179448458429
-22.14311157007663
-22.42998693854518
-22.70804235848798
-22.95793025763437
-23.16474383749819
-23.31593218837739
-23.3986098982807
-23.39727206869985
-23.29274354621805
-23.0628557710704
-22.68494975920538
-22.13984864600781
-21.41650181503607
-20.51625692801848
-19.45575245895805
-18.26766775546855
-16.99895606652439
-15.70670936155131
-14.45236573704601
-13.29536219683914
-12.28739850385974
-11.46823556725426
-10.8635674503129
-10.48511023781031
-10.33265923774387
-10.39749223730615
-10.66624174151224
-11.12431085792391
-11.75805723611399
-12.55528364135535
-13.50402781565541
-14.59014312490789
-15.79452594625371
-17.09093473411377
-18.44517213162082
-19.81609152998494
-21.15851729948025
-22.427718257094
-23.58461837093801
-24.60067568481352
-25.46142275924969
-26.16794209787524
-26.73593227111229
-27.19248691658862
-27.57120812027782
-27.90664674337973
-28.22916385126092
-28.56115597869142
-28.91530681297441
-29.29516811656236
-29.69787846314284
-30.11825798147578
-30.55312010831767
-31.00459509355437
-31.4815071827552
-31.99827662654877
-32.57139123091964
-33.21412150653647
-33.93063972055783
-34.71088307468973
-35.52737340775371
-36.33487225462039
-37.07326800546659
-37.67346839515237
-38.06541911283009
-38.18690969894426
-37.99167622039511
-37.45542174825272
-36.57872623215545
-35.38642560786789
-33.92379222717334
-32.25048572415487
-30.43356180052648
-28.5408148017956
-26.63549249033744
-24.77302804514332
-22.99992558385904
-21.35443412709716
-19.8683065645623
-18.56879895218883
-17.4800779529228
-16.62340144109887
-16.01586592616248
-15.66806432878273
-15.5814253500275
-15.74613190711768
-16.14035219074945
-16.73120351458121
-17.47751601181364
-18.33409193443963
-19.25680043377356
-20.20760369298952
-21.15854600783238
-22.09385645102019
-23.00963100327252
-23.91107500798876
-24.80788554915793
-25.70881782132791
-26.61664940598022
-27.52463670090989
-28.41525684721157
-29.26160584466812
-30.03127136718058
-30.69190452606789
-31.21729929892898
-31.59269086340061
-31.81815520103016
-31.90935700855151
-31.89543609088658
-31.8144606482961
-31.70740922936643
-31.61190048043638
-31.55685686850949
-31.55905803375428
-31.62216362465303
-31.73826057804114
-31.89140831971501
-32.06222671512972
-32.23241736528702
-32.38818854214846
-32.52182858723875
-32.63115181313594
-32.71713652005894
-32.78057025139983
-32.81873461540677
-32.8230922761325
-32.77868477495502
-32.66556495164851
-32.4620606366699
-32.14909975076264
-31.71447014012936
-31.15588673808731
-30.48201508726962
-29.71103953160882
-28.86692958858314
-27.97415803461621
-27.05205363401105
-26.11006460608458
-25.14498880182242
-24.14084869954267
-23.07164447931298
-21.90668109187906
-20.61758576992978
-19.18571950825521
-17.60859286985622
-15.90408978123152
-14.11170792235221
-12.29060496292727
-10.51488561639668
-8.867062663852252
-7.430810951772182
-6.284014293973407
-5.492826373668847
-5.107175812190218
-5.157900340635504
-5.655479387402623
-6.590117802644198
-7.932722268707078
-9.636188883808455
-11.63650920321943
-13.85353590920082
-16.19168646366383
-18.54117000444509
-20.78034742385562
-22.77960252535429
-24.40674051829793
-25.53352694310783
-26.0425984832116
-25.83375556348326
-24.82870386699625
-22.97357790201979
-20.23890177136803
-16.61699629161762
-12.11726329691203
-6.760164075458679
-0.5708573844935596
6.426702041070132
14.2147315893542
22.78545375190651
32.14372371056028
42.30841272404606
53.31244408277122
65.20118404562399
78.02861812484176
91.85056827371123
106.714365917008
122.6450639764266
139.629390597971
157.599878466658
176.4224928343289
195.8912943531867
215.733060470424
235.6232727266633
255.2125084434828
274.1595660187842
292.1654801461222
309.0015214130799
324.5244828540802
338.674342674835
351.4530229227755
362.8877333470527
372.9866358323974
381.6968184194499
388.8744414144216
394.2748750356156
397.5670531384048
398.3711852537716
396.3132780770026
391.0856006130363
382.5006963748276
370.5277464979235
355.3036526400784
337.1168442546845
316.3681744213724
293.5180368918425
269.0304732964952
243.3238531211082
216.7351259006914
189.5016288073924
161.761002493584
133.5662180555402
104.9102986599121
75.7549492896223
46.0585617353191
15.80098837084238
-14.99557018256332
-46.24885479441086
-77.80121232018851
-109.4071188878569
-140.7258695685111
-171.322885453528
-200.6828799231821
-228.2366353447339
-253.4007735397289
-275.6271636009877
-294.4560484449552
-309.5650897806734
-320.8058590448059
-328.2203862741533
-332.0334154430796
-332.6205622033843
-330.4576042500119
-326.0602311805685
-319.9253561538584
-312.4839604916118
-304.0720621255607
-294.922228721464
-285.1742983599052
-274.9009397172412
-264.1413305400402
-252.934959871687
-241.348020401974
-229.487144380317
-217.4986883084297
-205.5554188402533
-193.8353536546636
-182.4988692360041
-171.6696391792636
-161.4229884286046
-151.7829669041848
-142.7276869442762
-134.2012063332289
-126.129198845031
-118.4350343731497
-111.0531057156008
-103.9372956427081
-97.06393197667796
-90.42993443107288
-84.0478131964169
-77.93957270672469
-72.13130749079426
-66.64947353426774
-61.51892307199122
-56.76222571725361
-52.39957993954857
-48.44855015636656
-44.92294656845859
-41.83052857283916
-39.16979153293926
-36.92660647128571
-35.07168623698844
-33.55973561315685
-32.33082835959501
-31.31411547817017
-30.43344153262088
-29.613975275354
-28.78874118295324
-27.90399616000279
-26.92261751181979
-25.8250099914124
-24.6075224987129
-23.2789032625125
-21.85571304745016
-20.35771274281135
-18.80407888709806
-17.21102019093713
-15.59104212894978
-13.95371698039516
-12.30742596961062
-10.66132559611421
-9.026840967042334
-7.418221983079179
-5.852013366549847
-4.345648345173899
-2.915701667436299
-1.576479013454174
-0.3394758926999706
0.7861129847355957
1.792000876589222
2.668903823206256
3.404606158731395
3.982583790858838
4.381799071836966
4.578105546997287
4.547333687050386
4.269691594341329
3.734718343524064
2.945766646083443
1.92297508761773
0.7039755546025727
-0.6579239905645222
-2.097847202864847
-3.545166865409037
-4.930237727710039
-6.1911155537339
-7.27930950086588
-8.163750811636945
-8.832440004959954
-9.291619452655873
-9.562769801063602
-9.678147049330416
-9.675807199849428
-9.595014951802872
-9.472665787672863
-9.341029167496247
-9.226842164004912
-9.151530132571427
-9.132101512924397
-9.182142213525394
-9.312382675585395
-9.530495794316709
-9.840056973670572
-10.23892336682769
-10.71757880148422
-11.25810355184784
-11.83428964898394
-12.41311289249053
-12.95745853499303
-13.42976310141097
-13.79604363876679
-14.02963646593157
-14.11396293279892
-14.04383310090764
-13.82510219581757
-13.47280346184891
-13.00816030992863
-12.45509642090787
-11.8369349759975
-11.17386290152361
-10.48149994182384
-9.7706725698478
-9.048286932994863
-8.318986604791018
-7.587098102048236
-6.858320594171381
-6.140746535841277
-5.445022051463208
-4.783676138074313
-4.169833791868771
-3.615656779628321
-3.130881016514557
-2.721724254463669
-2.390281779118737
-2.134401897566202
-1.947962491362252
-1.82141367740328
-1.742402831306586
-1.696309328858599
-1.666607613993175
-1.635096595462939
-1.582122382298824
-1.486960494209221
-1.328507842122896
-1.086354367182383
-0.7421709322313438
-0.2812192907375809
0.306275084742075
1.024137895224247
1.869858661565585
2.834955891371309
3.906148055009097
5.067219500085
6.301287000767831
7.593038314145002
8.930475447971407
10.30577331345825
11.71506011018015
13.15719988857963
14.63191534438357
16.13772338995641
17.67013561424224
19.22046952291973
20.77550175287454
22.31805716772448
23.82841000033157
25.28610746674618
26.67165005916544
27.96749209976847
29.15806334155041
30.22886944832746
31.16508665722385
31.95030396803222
32.56608880932449
32.99283467027309
33.21198298560101
33.20935643002195
32.97908293332902
32.52739603651276
31.87545698176547
31.06036558156073
30.13381551679227
29.15835695763474
28.20178178901655
27.33056807952523
26.60350734887292
26.06657606594415
25.74984113964788
25.66675657260857
25.81569892901739
26.1831492633165
26.7476766573059
27.48382210602708
28.36509173236512
29.36554879242958
30.45991834271077
31.62257015146175
32.82607278057646
34.04012380296652
35.23155896284306
36.3658637966503
37.41018930476479
38.33740280356578
39.13034934142441
39.78535412809612
40.3140448034516
40.74281102091268
41.10968405428589
41.4590458435774
41.83515817352846
42.27582653297057
42.8074982457929
43.44279335112106
44.18096360605923
45.01114132014396
45.91761012607953
46.88588813109685
47.90823858461502
48.98728331004823
50.13671077494099
51.37869758619462
52.73849359322286
54.23737476131175
55.88558763460222
57.67692222519616
59.58623001074087
61.57061367266504
63.5741952489477
65.53551035026102
67.39599609504086
69.107877369498
70.63990032522288
71.97974423237376
73.13261561595107
74.11642127633228
74.95474729462107
75.66936112064542
76.27402419843433
76.77112127089727
77.15200190994514
77.4009871463065
77.50196320023065
77.44581903975204
77.23688244685117
76.89677956721704
76.4646161796336
75.9930924425436
75.5410824714438
75.16407816032527
74.90442963346297
74.78340647409328
74.79679586015098
74.91508275939735
75.08827570522138
75.25440223567692
75.34997020523637
75.32040940819108
75.12855414642529
74.7595605712393
74.22135053786558
73.54065616355771
72.75570969772689
71.9072961058829
71.03014585183821
70.14649365550834
69.26307500019581
68.37195846026432
67.45470388671835
66.48871302107652
65.45434406162171
64.34125960232421
63.15258761475697
61.90593752737544
60.63108973969156
59.36500727574769
58.14543488568985
57.00462255007407
55.96461377626553
55.03509031977359
54.21406218699006
53.49097754809527
52.85134007682775
52.28168877452838
51.77372720148329
51.32651130067018
50.94601635266456
50.64205744883323
50.42322506681845
50.29101153713048
50.23454265465238
50.22726303271277
50.22653944626014
50.17648255055047
50.013543105207
49.67389169135426
49.10134462782166
48.25455755695013
47.11231005172539
45.67599698204962
43.96893089288786
42.03264244244856
39.92091345220571
37.69268298812075
35.4051336817929
33.10811469180094
30.84061297701627
28.62943511617007
26.48984487122146
24.42769040386487
22.44244922266832
20.53053745013904
18.6882082356167
16.91347226732634
15.20672694853848
13.57012357252395
12.00602571444293
10.51510848772323
9.094669216180009
7.737592920351983
6.4322107933049
5.163078390668733
3.912527829623637
2.662727282804485
1.397907541437098
0.1063890294428099
-1.217924224677247
-2.574810469080802
-3.957819002582584
-5.355083155786819
-6.750659272070306
-8.126167336957426
-9.462522450703704
-10.74156221712282
-11.94737610911542
-13.06713609549264
-14.09125237005353
-15.01278975944168
-15.8262863591664
-16.52632837694784
-17.10633207732558
-17.55792130285742
-17.87112906949448
-18.035476895585
-18.04181789687931
-17.88465784385281
-17.56452379647141
-17.08989281627883
-16.47823677823371
-15.7558602295484
-14.95641366970772
-14.11826103952863
-13.28118541581289
-12.48308570769431
-11.75727018499346
-11.13074767304062
-10.62368554710689
-10.25001308498825
-10.01895016455304
-9.93699857787355
-10.00975479923782
-10.24293681430589
-10.64226555356838
-11.21218457216813
-11.95373394639704
-12.86213917583351
-13.92475626338777
-15.1199014464933
-16.41685861664164
-17.77712334200762
-19.15677282236494
-20.50970247989203
-21.79129932286457
-22.96198572372833
-23.99004496356203
-24.85324594939779
-25.5390088133332
-26.0431825615102
-26.36785508997932
-26.51883730786563
-26.50347350459146
-26.32927487782591
-26.00364326775907
-25.53468627671559
-24.93284454242549
-24.21283503073932
-23.39533208573491
-22.5078358223009
-21.58427516793954
-20.6631097638961
-19.78407462513911
-18.984141708492
-18.29353730026959
-17.73262748617114
-17.31022694352234
-17.02355936272023
-16.85980515752539
-16.79891757041577
-16.81716672334005
-16.89072423572262
-16.99857005687087
-17.12411307395658
-17.2552052521479
-17.38268459167991
-17.49805314095252
-17.59115544806882
-17.64865214023112
-17.65376596211255
-17.58740648982725
-17.43047896281493
-17.16694150154422
-16.78697118463134
-16.28950167284464
-15.68347748068572
-14.98741890701917
-14.22725533756435
-13.43280972159739
-12.63369061945035
-11.85550891399856
-11.11720043036379
-10.42988641929887
-9.797330667334666
-9.217776307515408
-8.686728237040686
-8.200031637558816
-7.756471229181786
-7.359210003155539
-7.015689803639916
-6.73601584742074
-6.530251283301877
-6.405370539728536
-6.362737980118816
-6.396809833110395
-6.495375702442915
-6.64126150865251
-6.815150734900508
-6.999011630487995
-7.179469682188317
-7.350390013049194
-7.51403576047789
-7.680446222812753
-7.86506210431494
-8.085049105377546
-8.355135744045231
-8.683935325489372
-9.071569121937609
-9.509016028298973
-9.979184586201733
-10.45940204077332
-10.92484434955154
-11.35230715424342
-11.72362536242615
-12.02805025447262
-12.26304468164825
-12.43328002088982
-12.54807546129345
-12.61797083520252
-12.65137076160943
-12.65212468501206
-12.61857462183631
-12.54419199478188
-12.41958351996782
-12.23540037269155
-11.98551831725203
-11.66979064540205
-11.29573372718394
-10.8786800537451
-10.44022828912353
-10.00522744258221
-9.597952506514396
-9.238377066282101
-8.939391949853436
-8.70549933853885
-8.533118247492913
-8.412333261593279
-8.32970810643099
-8.271600755849791
-8.227276644212909
-8.191109909115623
-8.16333255662468
-8.149123580600474
-8.156276294477255
-8.192120115402188
-8.260613832910554
-8.36044149841804
-8.484581098117943
-8.621388814280332
-8.756934376781315
-8.878146986308364
-8.976192412023964
-9.049379776187328
-9.104871687564358
-9.15862470817909
-9.233345890546808
-9.354765466635754
-9.547036015400844
-9.828354460655442
-10.20782682019616
-10.68420734115876
-11.24664833417405
-11.87718722522101
-12.5544221673758
-13.25765042839522
-13.97066499679308
-14.68445535972203
-15.39824395966212
-16.11860753891997
-16.85686499020851
-17.62535714244774
-18.4335185029324
-19.28462372803701
-20.1738308508158
-21.08780586198072
-22.00591007530358
-22.9026528521199
-23.75086159792447
-24.52489347412034
-25.20326636229747
-25.77026190413202
-26.21628878648518
-26.53708544756743
-26.73214607269436
-26.80295206438068
-26.75159334258545
-26.58020636987136
-26.29144700596145
-25.88999394931966
-25.38479361986477
-24.79144261795419
-24.13393730923949
-23.44512125094266
-22.76545069214588
-22.14004345347538
-21.61433027486727
-21.2289547353964
-21.01477130375282
-20.98879165606574
-21.15175282897148
-21.48772547407487
-21.96591076738383
-22.54447655140573
-23.17594696426355
-23.81335340986213
-24.4161719991506
-24.95506912336498
-25.41468634697906
-25.79411102577494
-26.10518511586946
-26.36921922888873
-26.61288649568951
-26.864078266167
-27.14837471618578
-27.48656472882596
-27.89337845439894
-28.37733552750122
-28.94141489084575
-29.58411503082157
-30.30039335770774
-31.08201822438731
-31.91710148368739
-32.78894218417734
-33.6746381151661
-34.54408160827379
-35.35993326959734
-36.0790100100764
-36.65525481229194
-37.04408458347157
-37.20752684030598
-37.11930024074499
-36.76893042878148
-36.16408914725125
-35.33059821625265
-34.30997433062362
-33.15492343218398
-31.92363216607361
-30.67389719970932
-29.4580723748292
-28.31958629175703
-27.29145438588496
-26.39678795077905
-25.65084268875484
-25.06380769953828
-24.64343712601909
-24.39675532520913
-24.33035504496586
-24.44921903720297
-24.75445048362234
-25.2406382724293
-25.89367722443897
-26.68972046666054
-27.59569141035319
-28.57151624066536
-29.57391044477799
-30.56114234776146
-31.49786020015819
-32.35898944082697
-33.13188418524714
-33.81625582876166
-34.42185305448427
-34.96436954417617
-35.46046376294233
-35.92295179303738
-36.35715586258868
-36.75913440288969
-37.11616097618869
-37.40938747802197
-37.61816780049396
-37.72513961714262
-37.7209569648204
-37.60756890302525
-37.39918377447039
-37.12056199651475
-36.80293599424614
-36.47844117832211
-36.17426645845216
-35.90774723698958
-35.68339610398974
-35.49247854761974
-35.31523526139654
-35.12529493795419
-34.89534512522548
-34.60285271060542
-34.23459976531204
-33.78905928904536
-33.27618081540352
-32.71484835702257
-32.12885202163822
-31.5424730645315
-30.9766973404327
-30.44677627768812
-29.96148939279109
-29.52407512430492
-29.13440602038814
-28.79167779072713
-28.49675726227017
-28.25341777693909
-28.06798145029667
-27.94737251091408
-27.89614206271252
-27.9134180832135
-27.99078537267965
-28.11183006771736
-28.25367525526834
-28.39042984438377
-28.49806224652152
-28.55979200769272
-28.57082088836713
-28.54125584320244
-28.49638946017952
-28.47399718391602
-28.51892116467587
-28.67583587302856
-28.98153628181561
-29.45818816597436
-30.108733321063
-30.9152111189414
-31.84029123815747
-32.83182088191239
-33.82965941739748
-34.77362286692986
-35.61114848727726
-36.30336076412283
-36.82855285294217
-37.18266330802104
-37.37700958638578
-37.43411170493055
-37.382709662819
-37.2530189814395
-37.07299696422618
-36.86603248167971
-36.6500702847618
-36.43778042491066
-36.2370919851742
-36.0513128530332
-35.87816266481435
-35.70736540290006
-35.51698101946889
-35.26925652721611
-34.90716821947474
-34.35280585650736
-33.50835620644094
-32.25989257280587
-30.48363766619375
-28.05388528200781
-24.85141766779664
-20.77118429438249
-15.72824069734288
-9.661351322332838
-2.534120512698097
5.666031228012696
14.93040179634051
25.23236357245888
36.53111895381926
48.77583962224401
61.91043274254205
75.87908713305099
90.63233734361441
106.1328328884323
122.3594741479217
139.3081416114376
156.9870622065692
175.4053130182283
194.5543665117966
214.3847049138921
234.7816344612255
255.545751576655
276.3836740000951
296.9135934243675
316.6878717243765
335.2313447986523
352.0899836701914
366.8814226048962
379.3374321893573
389.328848752145
396.8660994715358
402.0735271698885
405.1421127166001
406.2705936910003
405.6075292142008
403.2063326995889
399.0026113162568
392.8189977557172
384.3971064740496
373.4500958052286
359.7246252790256
343.0592983278198
323.4278947646121
300.959290808428
275.9314798118215
248.7431607817845
219.8707554954203
189.820098873996
159.0808639461353
128.0894706787682
97.20376899997527
66.6903138379299
36.72279611347176
7.388931507926147
-21.29676823783683
-49.37595439059658
-76.92573904924613
-104.0343550640904
-130.7733314537498
-157.1674135172796
-183.1652878605726
-208.6159253121085
-233.2560177823902
-256.7130960914987
-278.5266845295851
-298.186794626105
-315.1857902448886
-329.0767363774617
-339.5292683976451
-346.3733766464491
-349.6228726276665
-349.4737415561211
-346.2774200387035
-340.4941424440946
-332.6355400685884
-323.2073968348213
-312.6623135405903
-301.3686883457153
-289.5984300298515
-277.5324110578569
-265.2800237071984
-252.9071065986677
-240.4652810558983
-228.0160180668462
-215.6446564023864
-203.4625133036968
-191.5983304424153
-180.1828066562912
-169.3312194748163
-159.1287677847301
-149.6216202403801
-140.8147114789955
-132.6758840692945
-125.1450291363645
-118.1461221100844
-111.5995758634448
-105.4324959728669
-99.58526174628055
-94.01400925905588
-88.68964444087108
-83.59473075336979
-78.71986031756818
-74.06084567698181
-69.6173553195082
-65.39284327824012
-61.39516459899353
-57.63713370347972
-54.13628789125131
-50.91325684669779
-47.98852475800027
-45.37794013686316
-43.0878224758184
-41.11072508132943
-39.4228241015481
-37.98361538795914
-36.73817865259787
-35.62174450038282
-34.56580129139584
-33.50469388419482
-32.3816518757879
-31.15335419160054
-29.79243570359171
-28.28777290112737
-26.64286872823916
-24.87301155920715
-23.00198314302611
-21.05897109975981
-19.07613751536866
-17.08707759695011
-15.12613986080819
-13.2282847380958
-11.42896312302033
-9.763508080857733
-8.265727726295511
-6.965687649174443
-5.887011660402248
-5.044312069620992
-4.441452903906534
-4.071178756269955
-3.916278307545348
-3.952084483028893
-4.149893553947314
-4.480782088533341
-4.919202808546829
-5.445676698039387
-6.048005739013008
-6.72073829641013
-7.463015815353504
-8.275293595596072
-9.155679241555092
-10.0967038684012
-11.08320414601919
-12.09170808300311
-13.09141192689917
-14.04658583915016
-14.92001830843385
-15.67688533101015
-16.28831109729701
-16.73396885592752
-17.00331039558877
-17.09530536512033
-17.01686446104044
-16.78037829504175
-16.40095523234912
-15.89392710382337
-15.27303658797051
-14.54952002549745
-13.73212080574125
-12.82789599463766
-11.84349938298387
-10.78650170355524
-9.666315623666573
-8.494430522810877
-7.283891227624484
-6.048226795362493
-4.800262542642197
-3.551318860380748
-2.311156838614656
-1.088733067562267
0.1064718616224358
1.262953690405973
2.365946407488074
3.396842052482537
4.333585991989169
5.152211676369836
5.829443038576162
6.346022384286369
6.690186792309599
6.860588212761223
6.867998493659154
6.735388196327973
6.496348199884575
6.19217239909837
5.868110393472514
5.569359384311507
5.337385142097886
5.207117678406179
5.205364808491098
5.35045336031628
5.652795397121779
6.115904655676673
6.737378116829607
7.509488925057354
8.4192789435203
9.448313778386325
10.57243478218515
11.7618330007986
12.98167222428044
14.19344149719515
15.35717958920965
16.43452796656842
17.39223948043696
18.20549841654915
18.86036357492906
19.35483513578392
19.69837254808344
19.91004934331766
20.01582999978402
20.04560268460238
20.0305340159208
20.00106654629348
19.98561244494697
20.0098410324236
20.09639780523876
20.26484123076525
20.53153707999512
20.90928599912741
21.40661158045145
22.0268390317195
22.76725494129931
23.61870868428565
24.56598396024833
25.58911766918969
26.66558844491078
27.77303968456492
28.89204176265476
30.00832534450866
31.11389645269742
32.20654486453539
33.28757900116727
34.35811494930697
35.41471950649679
36.44547159828736
37.42750431255415
38.32686153375867
39.10107968016544
39.70430168963803
40.09407762978991
40.23855036996085
40.12260740099073
39.75175057562551
39.1528312277059
38.3714202976728
37.46633761641643
36.50250022617823
35.54353718686868
34.6455264306322
33.85287289155493
33.19688742011284
32.69707032310779
32.3645077032557
32.20630594774823
32.22974322275761
32.44484692122641
32.86446819185648
33.50164633253964
34.36495368970729
35.45321483609874
36.7512102086994
38.22769602517597
39.83651476983067
41.52093189073553
43.22067216341428
44.88049558092684
46.45869729450605
47.93376190677807
49.3075801972759
50.60419536601367
51.86400904166452
53.13452706665756
54.45962667931165
55.86964295960934
57.37429312069593
58.95980731573787
60.59081236081439
62.21660825710572
63.78061010327952
65.23108052891986
66.53093842948729
67.66444475222406
68.6390966820267
69.48219938367716
70.23302936110625
70.93266962540588
71.61406015314644
72.29456521508902
72.97267851838645
73.62956632136748
74.23504621858828
74.75650104388636
75.16850314451655
75.46077778709812
75.6424805455373
75.741529122116
75.79891447808144
75.8592786303957
75.96007101702412
76.12189081586885
76.34223065323984
76.59408411613228
76.82996322013773
76.99075996684617
77.01770007690605
76.86481108224007
76.50916899410555
75.95662692814092
75.2416343913879
74.42107527609552
73.56351964647911
72.73637524155455
71.99375429678565
71.36748537091988
70.86292050611355
70.46023301894175
70.1207913541775
69.79707066179385
69.44379760968961
69.02784588432083
68.53472708436898
67.97025764514046
67.35711112538036
66.72726448320098
66.11234773182997
65.53425629064566
64.99811628673159
64.48907960685602
63.97364789047267
63.40530217150782
62.733272930104
61.91261765344331
60.91353941493443
59.72802062648453
58.3723394762062
56.88492068611899
55.32007590204719
53.73911942028227
52.20079667652765
50.75291493291068
49.42668013327613
48.23465931735281
47.17256459304208
46.22429233415755
45.36902089332636
44.58878510647349
43.87483805216183
43.23133865733424
42.67550930395561
42.23425439400596
41.93803849086157
41.81336829172859
41.87543606552745
42.12238321332858
42.53227458366046
43.0633184294002
43.65726474390237
44.24539537443188
44.75611499139192
45.12285907573655
45.29092886491205
45.22205057278064
44.89593307904988
44.30873507049898
43.46899426747357
42.3920843122676
41.09451871799538
39.58932399431843
37.88330261051615
35.97649917995518
33.86376052774741
31.53797528471551
28.99433083295551
26.23473811638748
23.27152756076016
20.12966259905622
16.84702480894322
13.47272140825585
10.06374959414709
6.680614631881347
3.382587644527102
0.223250343970847
-2.753113169414601
-5.51383385459568
-8.038616739257034
-10.31871545793502
-12.35476984673324
-14.15380592018218
-15.7260562389117
-17.08226017939031
-18.23194565170678
-19.18295459574598
-19.94225150506114
-20.51785840211018
-20.92151882073521
-21.17141859401677
-21.29414450821402
-21.3251679540288
-21.3074534394162
-21.28820660747775
-21.31421954571398
-21.4266378804937
-21.65612973868464
-22.01933186327647
-22.51716621516945
-23.13528528427693
-23.84656738266856
-24.61523848792207
-25.4018951628047
-26.16854848626856
-26.88283482729777
-27.52070372258179
-28.06719200200883
-28.51533213351866
-28.8637083773379
-29.11346938439297
-29.26562706466472
-29.31928919088633
-29.27121500727873
-29.11678243275294
-28.85209290975919
-28.47660371010884
-27.99552212402559
-27.42124890716494
-26.77334141429504
-26.07677079554622
-25.35869454792502
-24.64443653799153
-23.95363695463558
-23.29748440194247
-22.6776512036303
-22.08718728591203
-21.51327042935519
-20.94134656367669
-20.35985537513558
-19.76454594449465
-19.16142255682641
-18.56760371783785
-18.00980261651232
-17.52070446342043
-17.13406597501109
-16.87966414324258
-16.7791606450014
-16.84361711733447
-17.07299092136827
-17.4575742104348
-17.98099139323822
-18.62403884422593
-19.36844327307746
-20.19962677239321
-21.10778955468276
-22.08702074437598
-23.13267759563701
-24.23778733756843
-25.38950997640253
-26.56664918094361
-27.73890012811416
-28.86814675165446
-29.91173515596333
-30.82722460183383
-31.57771367165702
-32.13664362228376
-32.49108315011902
-32.64281142677955
-32.60695492942524
-32.40847147567128
-32.07729663936309
-31.64326422401195
-31.13187106164197
-30.56166497197085
-29.94365861536178
-29.28277212982544
-28.58086881652821
-27.84056045630076
-27.06878787482955
-26.27925870441421
-25.49305770745931
-24.73711518041161
-24.04074144797658
-23.43098000477712
-22.92785847936171
-22.54059500816449
-22.26553002343191
-22.08617340413343
-21.97536667300881
-21.89915229504049
-21.82157983254782
-21.70949977888181
-21.53644437937267
-21.28490450637389
-20.94665013410317
-20.52120293338317
-20.01303979728432
-19.42839034211507
-18.77248385312368
-18.0478694014886
-17.25412485025115
-16.3889607113895
-15.45040060669979
-14.4394232188458
-13.36230993065335
-12.23201871498575
-11.06813781797138
-9.895303332633762
-8.740362845949793
-7.628933208484722
-6.582175847438991
-5.614517946390497
-4.732756717515901
-3.936655594219309
-3.220871075085515
-2.577817368416578
-2.000866878560763
-1.487176544619972
-1.03950280366552
-0.6666044668698725
-0.3821663580142889
-0.2025415604022752
-0.1439128267348279
-0.2195993211752534
-0.4381278966085704
-0.8024110882220931
-1.310067835028367
-1.954685661127168
-2.727650339485408
-3.620042858853004
-4.624064431112666
-5.733532888671763
-6.94318096692788
-8.246760625632838
-9.634295565960956
-11.08913192152182
-12.58557425295124
-14.08779266252245
-15.55041248813342
-16.92087649854289
-18.14335944191567
-19.16370649015121
-19.93461640903377
-20.42022373518293
-20.59937789797079
-20.46716557033234
-20.03450405121843
-19.32595731226023
-18.37625680592499
-17.22623120127836
-15.91888253230231
-14.49622387240769
-12.99730355273543
-11.45761125539551
-9.909760075603
-8.385004723634964
-6.914930151866358
-5.532621693712399
-4.27278081432421
-3.170525156806117
-2.258968649406371
-1.566031898516448
-1.11115888844726
-0.9026366818776763
-0.9360555728637681
-1.194209101756375
-1.648507105008284
-2.261761351817996
-2.991960669576701
-3.796416061608139
-4.635534013503108
-5.475542273786273
-6.289745937434208
-7.058267183464097
-7.766595056757567
-8.40351323594476
-8.959032081401242
-9.422865020652667
-9.783832254017318
-10.03038177455899
-10.15216021366036
-10.14224781989039
-9.999419016214546
-9.729745595395402
-9.34703275429172
-8.871881502164323
-8.329520644142182
-7.746860496139813
-7.149392284712218
-6.558550383624989
-5.990016134979234
-5.4532574693943
-4.952404756127185
-4.488325377712435
-4.061472109659876
-3.674846755602483
-3.336358679069799
-3.059988704535051
-2.86544866106007
-2.776394744491439
-2.817604818983018
-3.011742696042639
-3.376353311181769
-3.921605769343521
-4.649110367077407
-5.551934599331108
-6.615735262974062
-7.820712130867212
-9.143919032839571
-10.56139323180795
-12.04960664309363
-13.58591568731076
-15.14797934630795
-16.71243961852244
-18.25338404291648
-19.74116900847908
-21.14210954393305
-22.41939342204344
-23.53534592854306
-24.45482925015687
-25.14919608517773
-25.60000646082728
-25.80173003199468
-25.76282650878547
-25.5048774338555
-25.05983153726465
-24.46584432817209
-23.76248901400925
-22.986204255592
-22.16675926300535
-21.3253273344775
-20.47446897779231
-19.61991373122624
-18.76358919085681
-17.90707043059565
-17.0546069863069
-16.21505933582317
-15.40236297273515
-14.63450535994217
-13.93137101510053
-13.31204896491589
-12.79223467489481
-12.38224631854124
-12.08600437998171
-11.90112115068804
-11.82000056355196
-11.83161462884782
-11.923497232497
-12.08349128592951
-12.30085192883365
-12.5664559567854
-12.8721284714504
-13.20940282534468
-13.56823054404437
-13.93616756811483
-14.29841947001863
-14.63891001876409
-14.94227463877322
-15.19640457400414
-15.39498450392541
-15.53945266501845
-15.63990555295458
-15.71459094006593
-15.78783243972315
-15.88656816729783
-16.03607124445272
-16.2556628365818
-16.55523133698778
-16.93319102917006
-17.37625830865721
-17.86112223094766
-18.35771659057306
-18.83343835714144
-19.25746371127389
-19.60434962412921
-19.85630351177907
-20.00380112230507
-20.04462182385284
-19.98176528947174
-19.82095877345605
-19.56847578324192
-19.22982475262572
-18.80964272930101
-18.31286350244338
-17.74686983911366
-17.1239563111218
-16.46323957040516
-15.79127043271476
-15.14092408638525
-14.54853838538847
-14.04968695518788
-13.67434483207623
-13.44239590764487
-13.36036263742512
-13.41997005787419
-13.5988260868456
-13.86317852159065
-14.17236962402669
-14.48426886946346
-14.76074332537541
-14.97220804299833
-15.10046704853907
-15.13938513510653
-15.09340527818716
-14.97443296160456
-14.79795487685897
-14.57932743552312
-14.33100144780378
-14.06116729705822
-13.77397862335771
-13.4711420532398
-13.15430554096081
-12.82747979200636
-12.4987556451277
-12.18077976799151
-11.88976312242094
-11.64319433740556
-11.4568197940658
-11.34167428502444
-11.30190801920651
-11.33391558288307
-11.42697171402557
-11.5652943970781
-11.73116524112766
-11.90845705089161
-12.08576775830499
-12.25841730037098
-12.42879049437213
-12.6048531483694
-12.79710335564188
-13.01464718266014
-13.26134071409515
-13.53291749882885
-13.81577027196127
-14.08771045102307
-14.3206695821136
-14.48493881006109
-14.55420398919267
-14.51042591578793
-14.34759354669441
-14.07353676683723
-13.70933842311199
-13.28642403443619
-12.84198398461689
-12.41376476282604
-12.03531669450407
-11.73255390045227
-11.52212612030997
-11.41173164967986
-11.40211551901741
-11.49011321537131
-11.67184695902185
-11.94517609880845
-12.31072774842248
-12.77121134170056
-13.32918737609327
-13.98390672587819
-14.72810371125932
-15.5456221478461
-16.41053447937275
-17.28812109266158
-18.13777581982275
-18.9175289432749
-19.58942672601423
-20.12467864511772
-20.50748087863423
-20.7367184766769
-20.82519400300435
-20.79653827679719
-20.68044673254105
-20.50721782934262
-20.30265165185636
-20.08422549533918
-19.85919963552302
-19.62497005583632
-19.37155727391317
-19.08565139364578
-18.75528629206708
-18.37410614703906
-17.94429702590394
-17.47754525669707
-16.9938364246286
-16.51843155272012
-16.07777261802947
-15.69524456822949
-15.38765377011755
-15.1630617863541
-15.02031698034831
-14.95028769114268
-14.93846130032413
-14.9683033024059
-15.02461449412926
-15.09610543237477
-15.17657659128423
-15.26447521768353
-15.36108873907252
-15.46802717982504
-15.58479782084504
-15.70718291607403
-15.82689229578025
-15.93266034670223
-16.01261409033673
-16.05739097609795
-16.06322883693275
-16.03417181856453
-15.98265769118903
-15.92807958377982
-15.89342404527375
-15.90063928603464
-15.96576540300287
-16.0949204625819
-16.28201159473757
-16.50867008741923
-16.74649459605412
-16.96123354980542
-17.11809453343758
-17.18709947237189
-17.1474283147747
-16.98996100410298
-16.7176378865938
-16.34375478885098
-15.88879196802325
-15.37667352795916
-14.83135028513886
-14.27435658853847
-13.72368837928475
-13.19406826606858
-12.69832336529601
-12.24920425555586
-11.86075283924452
-11.54847780130646
-11.32801939477433
-11.21246000270535
-11.20885500192155
-11.31486556185061
-11.51646423703728
-11.78747872526463
-12.09131872885256
-12.38478671025125
-12.62351468262089
-12.76825895085538
-12.79102406982335
-12.6799131775016
-12.44179910883653
-12.10229491823209
-11.7029681397037
-11.29625169919878
-10.93897397216756
-10.68569354610785
-10.58296368153336
-10.66532484511221
-10.95340667427237
-11.4541338264211
-12.16268563752855
-13.06557758763559
-14.14408238554346
-15.37721314480222
-16.74362495503857
-18.22206761053818
-19.79044952322054
-21.42403273226974
-23.09356341870946
-24.76412912251152
-26.39528549675903
-27.94266084493759
-29.36088668634165
-30.60730915243694
-31.64561446078395
-32.44843599713803
-32.99821862905028
-33.28595179132045
-33.30777806805474
-33.05996502640419
-32.53321061662758
-31.70751510524406
-30.54874783156298
-29.00764508349929
-27.02149917734921
-24.51833140264445
-21.42285731701112
-17.66313902377277
-13.17668862494773
-7.915006319394568
-1.845963215903648
5.046062347561669
12.76188728701866
21.29029610522062
30.6110714238573
40.69778807954744
51.52036455668496
63.04771946428065
75.25089381577874
88.10669196632787
101.6014355562581
115.7339587835139
130.5165494599402
145.9722594305575
162.1271630217059
178.9970360634879
196.5695045706108
214.7844799337765
233.5170367665659
252.5673725444341
271.6618985672043
290.4676924145522
308.6195783542517
325.7557578065253
341.5553375257024
355.7699109918287
368.2416139549592
378.9021468367312
387.7514426511877
394.820035159611
400.1237137113272
403.6211189844825
405.184355530488
404.5902273771644
401.5358128308526
395.6768765492108
386.682051593934
374.2917806363366
358.3698696299322
338.9370015657069
316.1794285066902
290.4320105068116
262.1411329621997
231.8171742598289
199.9866570499566
167.1518139181049
133.7620088888428
100.1984863883017
66.77121873205988
33.72425129177353
1.244814401686266
-30.52778798361308
-61.49538922163428
-91.59560692649661
-120.7951180627602
-149.0779215187777
-176.4262430963274
-202.7950126177564
-228.0846072924628
-252.1188760324443
-274.6353489352787
-295.2923417132811
-313.6943185392266
-329.4331860562742
-342.1397058522125
-351.5364250793377
-357.4821192310631
-359.9984625635144
-359.2727551029583
-355.6355065518911
-349.517298549157
-341.3940045894972
-331.7316059530228
-320.9408294809936
-309.3483618545179
-297.1871317897134
-284.6044790146137
-271.6842417698117
-258.4766791959606
-245.0289731260324
-231.4094516436504
-217.7207524125315
-204.1002530131037
-190.7093222964963
-177.7154811287998
-165.2727577486446
-153.505057605076
-142.495607631375
-132.2834869625752
-122.8667339062998
-114.2105335758044
-106.2582468213613
-98.94265248837135
-92.19508075958579
-85.95109174792115
-80.15256473770651
-74.74705632636989
-69.68584723297639
-64.92218935130181
-60.41088068210464
-56.10954077699724
-51.9811797049998
-47.99721157673736
-44.13999313181566
-40.40408387698235
-36.79567549356782
-33.33009424530644
-30.02785964067592
-26.91022467281003
-23.99522398003742
-21.2950414368203
-18.81515129533312
-16.55529526471416
-14.51193412694325
-12.68142316042427
-11.06296810563521
-9.660493428675055
-8.482825876421824
-7.541998240126489
-6.849979169220827
-6.414616967630433
-6.235842300158818
-6.303075154008577
-6.594399126781431
-7.077616789940932
-7.712936850218391
-8.456770552133912
-9.265914932472425
-10.10133154414235
-10.93083199463409
-11.7302232818698
-12.48281182345485
-13.17758472856115
-13.80676714915528
-14.36361743362712
-14.84117465352452
-15.23231053562783
-15.53105423312904
-15.73485425393742
-15.84719249933727
-15.87978935659808
-15.85364247464778
-15.79835608866286
-15.74955589882648
-15.74458151577753
-15.8170809646669
-15.99149882939849
-16.27857553662795
-16.67276968502706
-17.15208309333582
-17.68031180551242
-18.21135660477116
-18.69486588004058
-19.08219393829769
-19.33160216509564
-19.41186446669697
-19.3038320968264
-18.99994085899255
-18.50206893940149
-17.81850537544165
-16.96092346632398
-15.94209428753133
-14.77472850611049
-13.4714919373751
-12.04597287822799
-10.51413061371043
-8.895556196998484
-7.213885245538456
-5.495967369364585
-3.76978082010254
-2.061447360115747
-0.3920065984425942
1.225207628058883
2.785800523038057
4.2937182671666
5.75889524459173
7.193670438419022
8.608723077071392
10.00931854311791
11.39259420939033
12.74645083597865
14.0503252870681
15.27774100005735
16.40013240245388
17.39109313489002
18.23001503633836
18.90419246280305
19.40890346779547
19.74559850632361
19.91885212163089
19.93297141209132
19.78913219107268
19.48375719814656
19.00861704836521
18.3528097497589
17.5063699716751
16.46483985576696
15.23379732004571
13.8322080897228
12.29365519666191
10.6650094099027
9.002758073471806
7.367729568375985
5.819185045939166
4.409268453862379
3.1787146626759
2.154491202679185
1.349655056968618
0.7652301450099703
0.3934942900877368
0.221792998010922
0.235926141628514
0.4223348956134789
0.7687292195392855
1.263282056974561
1.89286649780955
2.640953145363592
3.485804690153813
4.399565618908287
5.348691759788655
6.295861411938202
7.20314000951373
8.035851798708483
8.766418793651257
9.37740908865715
9.863225485111595
10.23022192281243
10.49542520762112
10.68430778839594
10.82813514598853
10.9613383518056
11.11921742648832
11.33612283549964
11.64411698705636
12.07198599497762
12.6443566935792
13.38061343060427
14.29336842156217
15.38644850718698
16.65266183247952
18.07186573280157
19.60994718195729
21.21922865309683
22.84060678859869
24.40749544582892
25.85136826197923
27.10834375383035
28.12589378127311
28.86855165705903
29.32158403687217
29.4919754760246
29.40664937854541
29.10844910800225
28.65084614085732
28.09249169483297
27.49256585366139
26.90751198367256
26.3893273507158
25.98521296929696
25.73809350782069
25.68732134204224
25.86884231873571
26.31428991618732
27.04886956322841
28.08837125167266
29.43603568189814
31.08016824262311
32.99331916770317
35.13356423218242
37.44795771204637
39.87766759694068
42.36384114191476
44.85305896573966
47.30131038557879
49.67568429586782
51.95341000686665
54.11848054448381
56.1567087063942
58.05050751996368
59.774829268258
61.29552784885261
62.57092994835706
63.55661659415035
64.21252113312502
64.51082449295242
64.44297916958837
64.02438759790296
63.29564346720299
62.31983896980597
61.17624021414022
59.9514357149417
58.72960549893283
57.58370781598665
56.56916097302116
55.72107404078761
55.05531086255343
54.57282138853639
54.26600692806913
54.12554456361264
54.14604956916261
54.32919975029976
54.68354281012181
55.22108092318665
55.95160395285483
56.87633457092182
57.98261529387554
59.24112913949963
60.60658067319986
62.02196832893345
63.42573982513965
64.76048055736666
65.98144049077011
67.06312689482061
68.00242545930017
68.81736509108377
69.54162941702874
70.21593287148646
70.87810168346952
71.55396498586681
72.25094865841211
72.955630980338
73.63561824650665
74.24520510320544
74.7336202964177
75.05422132371861
75.17274432965125
75.07279105652535
74.75732828252723
74.2459852828418
73.56900037416274
72.75944760226538
71.84571178898757
70.84605739533653
69.7665656656956
68.60276767587881
67.34427035103842
65.98097721733222
64.50931323708895
62.93700481883251
61.28528174792841
59.58787790671091
57.88690785708199
56.22641998754723
54.6449632041289
53.16873902344852
51.80683337411685
50.54963030693737
49.37080115764718
48.2324017718174
47.09194157643921
45.9100189236544
44.65715102544564
43.31861600796962
41.89646944642776
40.40842176228409
38.88388023150137
37.3580205758565
35.86512389378733
34.43250767565659
33.07617420611476
31.79886337544358
30.59067867754663
29.43200145385089
28.2980654029837
27.16430871643514
26.01147612224874
24.8294786847008
23.6192706947365
22.39243498697954
21.16868886907528
19.9719895020914
18.82617671792059
17.75107713436401
16.7597762055319
15.85747534351304
15.0420656829305
14.30626560563735
13.64087369651205
13.03841752056737
12.49630747026241
12.01862153271371
11.61591286126309
11.30291992112248
11.09460955157145
11.00137621721578
11.02433915808477
11.15159070179978
11.35608881090649
11.59569478179362
11.81557994219357
11.95283687677251
11.9426842314972
11.7252565300075
11.25175926755466
10.48886981545049
9.420695442285623
8.048204275478184
6.386554519662991
4.460993557413038
2.30206504128403
-0.05907375217355787
-2.594366543089581
-5.2808625439412
-8.100619308758048
-11.03859946928159
-14.07914431341068
-17.20196862456638
-20.37873469139452
-23.571083202284
-26.73062215971489
-29.80096933981112
-32.72159614264283
-35.43291751923579
-37.88182913755048
-40.02678254860878
-41.84153048533193
-43.31683671538983
-44.4597621962848
-45.29064840088936
-45.8384881714663
-46.13575009932802
-46.21376138732581
-46.09953358241011
-45.81458768127035
-45.37593565631826
-44.79887415988109
-44.1007538696517
-43.30462248739128
-42.44167307262276
-41.55167151090587
-40.68094714092295
-39.87812026657552
-39.18837684376359
-38.64751807698249
-38.27704802342049
-38.08128416161041
-38.04706124393348
-38.14614063346374
-38.33994061902102
-38.58573718854353
-38.84319016455044
-39.07998309457962
-39.27549839738847
-39.42180713764837
-39.52186292891045
-39.58549927395028
-39.62434586357257
-39.64691570013623
-39.65492295884528
-39.64154219066394
-39.59191490388312
-39.48576374535367
-39.30153647764925
-39.02117154047858
-38.63440730703287
-38.14157952370518
-37.55415662175894
-36.89288178602408
-36.18412157284273
-35.45552631334608
-34.7321925338145
-34.03424802383105
-33.3763528896916
-32.76915326196678
-32.22225412944312
-31.74783735742298
-31.36378472273323
-31.09519015059918
-30.97345528195826
-31.03271117166468
-31.30402812228873
-31.80857076553016
-32.55123715587877
-33.51622585461535
-34.66551620617064
-35.94069672066281
-37.26807423415541
-38.56645198298525
-39.75635668949077
-40.76908388077436
-41.5539659880573
-42.08269002507372
-42.35011207839839
-42.37173492513077
-42.1787120389877
-41.81168823479566
-41.31482704653195
-40.73107920049299
-40.09931485104972
-39.45349456860726
-38.82360786922216
-38.2377167550946
-37.72419892787237
-37.31321246362638
-37.0365039242328
-36.92504924785044
-37.00469310076578
-37.29071838561497
-37.78275725141521
-38.46143106523112
-39.28767391966775
-40.20511234510015
-41.14530533306331
-42.03509831303956
-42.80485576041172
-43.39607569739806
-43.76696032837733
-43.8948784575876
-43.77525995777332
-43.41726895742326
-42.8374109168304
-42.05271255685612
-41.07508501353229
-39.90805065515356
-38.54645119623458
-36.97920043732308
-35.19455285444602
-33.18675391617585
-30.96254692926881
-28.54602100545655
-25.98066245780495
-23.32810974152917
-20.66391224643625
-18.07134561050367
-15.63473287860294
-13.43359092547718
-11.53839382184491
-10.00815315250925
-8.889613043546385
-8.217625477986452
-8.016070523141991
-8.29852942293518
-9.067951006773741
-10.31484573320179
-12.01404864845493
-14.1206956668087
-16.5665599934731
-19.25806062843208
-22.07697196727509
-24.88426545423575
-27.52687620682852
-29.84668232742971
-31.69060043612281
-32.92042744309585
-33.42099769167055
-33.10544075077606
-31.91676323834414
-29.82558144354462
-26.82454544475661
-22.92063082649202
-18.12675862297631
-12.45402823057027
-5.905385187622855
1.528910073713196
9.873937929308225
19.1709751450754
29.47666639161861
40.86052731482093
53.40056107647387
67.17652087456996
82.26028555834851
98.7031456364809
116.5206143290806
135.6765205740926
156.0692162442499
177.5233029567845
199.7900266750098
222.5582201743458
245.4754987885999
268.1769078047641
290.3161447759182
311.5932196772845
331.7720975405127
350.6829699949909
368.2068418050758
384.2446250257331
398.6773596613271
411.3269827004501
421.927622427951
430.1158421023087
435.4447429776246
437.4215757387394
435.5627688348567
429.456124215029
418.8184131818507
403.5374374491033
383.6906508771748
359.5376970531868
331.4904114105764
300.0684822754311
265.8504330379032
229.4283012353793
191.3718711296502
152.2054367024982
112.3968696305648
72.35584049823419
32.43674162471438
-7.057309656886343
-45.87092128806911
-83.79257191906636
-120.6478658407274
-156.2867386723095
-190.5629173297392
-223.3072660547068
-254.300340371267
-283.2516247593276
-309.7926201115753
-333.4885073240198
-353.8694225034506
-370.4783072315499
-382.9285494478621
-390.9617769058883
-394.4948821477274
-393.6463890355995
-388.7358441054661
-380.2553650040821
-368.8184433272418
-355.0958953385485
-339.7509701744897
-323.384490309843
-306.4973449252196
-289.4733617839137
-272.5818114723887
-255.9957786271027
-239.8202778156201
-224.122737717426
-208.9589529995658
-194.3897558958189
-180.4866923281978
-167.3279601003218
-154.9880730882554
-143.5256821120075
-132.9735366583466
-123.3330884879616
-114.5745473297719
-106.6419137898836
-99.4616301440536
-92.95283830521227
-87.03698974405003
-81.64497120478819
-76.72085757012385
-72.22242594354496
-68.11929877863787
-64.38993290472276
-61.01867240593268
-57.99375326863575
-55.30655452535323
-52.95177586346392
-50.92784898648673
-49.23680281027166
-47.88290659659546
-46.86970986460125
-46.19561632601459
-45.84872632412051
-45.8020807288183
-46.01047540287713
-46.40975554738989
-46.91910478409107
-47.44636363813972
-47.89580522622513
-48.17717639490053
-48.21447108146711
-47.95298879520539
-47.36361846516869
-46.44381668282171
-45.21536394619356
-43.71958524684824
-42.01111857158152
-40.15138707479881
-38.2027530177491
-36.22406491211751
-34.2680013003984
-32.38020811185106
-30.5997762470225
-28.96031037648006
-27.49080796478876
-26.21574345914718
-25.1540789179354
-24.31736763396416
-23.70754799050741
-23.31523425958652
-23.11920324791741
-23.08744450870343
-23.17976251493122
-23.35160049780525
-23.55852133962619
-23.76064621942688
-23.9263334284771
-24.03446090144099
-24.07485258543014
-24.04670968023612
-23.95537077776619
-23.8081758351154
-23.61043441815432
-23.36240918938011
-23.05791782470552
-22.68480211005554
-22.22718739223452
-21.66911487624246
-20.99878166392695
-20.21241686828422
-19.31688480702402
-18.33041219613928
-17.28128382556614
-16.20484205625744
-15.13952821846056
-14.12286864387205
-13.18817618783491
-12.36241141540899
-11.66532177337629
-11.10975836090688
-10.70287732471338
-10.44768385982619
-10.34420255772931
-10.38966165171057
-10.57745824188635
-10.89514354103268
-11.32206228376957
-11.82749124281766
-12.37007370283804
-12.89904156588442
-13.35727999086812
-13.68590917343
-13.82983209619427
-13.74356859487023
-13.39659333546102
-12.7773694795901
-11.89540994104811
-10.78100131615023
-9.482623441930247
-8.062510357612545
-6.591117534374907
-5.141370167814652
-3.78343304915688
-2.580450680917741
-1.585408926535715
-0.8390805268472928
-0.3689475034876697
-0.1889718698959462
-0.300036577463959
-0.69080235236493
-1.338708785775494
-2.210965264367893
-3.265591225946693
-4.45274056950647
-5.71656539987289
-6.997730429480204
-8.236473858134225
-9.375939412644195
-10.36542632339417
-11.16318736186197
-11.738420232893
-12.07217393582986
-12.15705891029421
-11.99587375019366
-11.59947401848897
-10.98435348442065
-10.17043622643529
-9.17945866661538
-8.034085337515918
-6.757655238055806
-5.374304278120311
-3.909172406136294
-2.388418626550798
-0.8387972336177982
0.7133648359073976
2.243769596550462
3.732077989825267
5.163730151530468
6.531154370764932
7.833963890289739
9.077993681450595
10.27335908925897
11.43200201361359
12.56531774267113
13.68239603942376
14.7892227258643
15.88895974049322
16.98319704041853
18.07384627821369
19.16513459078406
20.26502706891
21.38545468451154
22.54099340085103
23.74607614356635
25.01129107467823
26.33966673745054
27.72393589327309
29.14556920791756
30.57597007345176
31.97978089838248
33.31986063483968
34.56314057536694
35.68626158095803
36.67977419465623
37.54989530100496
38.31736169368421
39.01363275923565
39.67534649329173
40.3383431093055
41.03263083833011
41.77936367645318
42.59034080660135
43.46992692786525
44.41878499001324
45.43842101816167
46.53526915588566
47.72303205654247
49.02239042341577
50.45794857881615
52.05311648150727
53.82424786159644
55.77559989107102
57.89652940958622
60.1618220129448
62.53523790705984
64.9754743913434
67.44310125635833
69.90677006539495
72.34707629432415
74.75685256918314
77.13745946989239
79.49170710741912
81.81502578644879
84.08705681296595
86.2658539502764
88.28646552273233
90.06484756875696
91.50683067358128
92.52051424126316
93.02957441100574
92.9848427789304
92.37193077926929
91.21341141008877
89.5651401655867
87.50759919253343
85.13426788477415
82.53955142773465
79.8086764017371
77.01140299400885
74.20054778386414
71.41516905422424
68.6870582890056
66.04837376744102
63.53808327623451
61.20522014397178
59.10769426142758
57.30655551001011
55.85696419627281
54.79815608883818
54.14496498597224
53.88298530290364
53.96856416082505
54.33381542457803
54.89586045606375
55.56863865715775
56.2750922641989
56.95739609110817
57.58315028442117
58.14616229326362
58.66166981408927
59.15730021672709
59.66213889324698
60.19657087309347
60.76511314307348
61.35362339848398
61.93131023358026
62.45692742976442
62.88755759424221
63.18780724911279
63.33720116185108
63.33395882224833
63.19408859060325
62.94585672433652
62.62094837833464
62.24454167198634
61.82670440714449
61.35706084575607
60.80389700776096
60.1179869053633
59.24044127328105
58.11295915429901
56.68835990773807
54.93933450982546
52.86379145437014
50.4858354311767
47.85231511323899
45.02587564367239
42.07619186176528
39.07125955052728
36.07032873779237
33.11953245688146
30.25066128592778
27.48286548360004
24.82642892249369
22.28739702249656
19.87185840120689
17.58893626480606
15.45190579529116
13.47730761431375
11.6824266020325
10.08188705215105
8.684240537515025
7.489304581484639
6.486775496324081
5.656388160203316
4.969633368357695
4.392764817747233
3.890598790399623
3.430498209594604
2.985933276361363
2.539090427674597
2.08215239652579
1.617085634016074
1.154012179276542
0.7084665500872034
0.2980013354326281
-0.06132489095795058
-0.3580685437199785
-0.5877146578941339
-0.7539004321830294
-0.8684228611041518
-0.9500681473732191
-1.022461152374043
-1.111292902690325
-1.241430982254011
-1.434498367704647
-1.707444072110871
-2.072388580703806
-2.537680408765977
-3.109803265091951
-3.795633598019869
-4.604532108756357
-5.54977069327116
-6.648839540645769
-7.922309263816762
-9.391170510500878
-11.07290863011882
-12.97692597939282
-15.10019447192121
-17.42408750592529
-19.91315084534513
-22.51619867765923
-25.1697121474165
-27.80316974129985
-30.34564908463068
-32.73280281782787
-34.91318511357327
-36.85293875583407
-38.53804637896042
-39.97371616313463
-41.18101040849931
-42.19140907075212
-43.04040920252534
-43.76135846614467
-44.38055582095955
-44.91436310500301
-45.36870583552655
-45.74085736966097
-46.02286154415108
-46.20557190551914
-46.2822121782453
-46.25054793350192
-46.11313363316814
-45.87563648547773
-45.54382256491676
-45.12019432368204
-44.60133608300715
-43.97680035408555
-43.23000897887752
-42.34122737467148
-41.29218408803074
-40.07142968326604
-38.67926022260536
-37.13107757584061
-35.45835370933747
-33.70683603741707
-31.93224405821141
-30.19432859631434
-28.55054968908588
-27.05061999842398
-25.73282755574521
-24.6226126237669
-23.73346731251697
-23.06981151661623
-22.63104430482942
-22.41563910842012
-22.42414232113386
-22.66025405068105
-23.12968860677334
-23.83711037947549
-24.7819787891237
-25.95442988170071
-27.33226163387717
-28.87975046400738
-30.54860718434379
-32.281011267332
-34.01431750099123
-35.68668124847801
-37.24259546006014
-38.63728645626442
-39.839098960696
-40.82941249578775
-41.60024157295418
-42.15030915536783
-42.48077764562139
-42.59182312039037
-42.48092422775934
-42.14329063845005
-41.57437496019242
-40.77390934588455
-39.75047540700361
-38.52542190039239
-37.13504395903035
-35.6302551046325
-34.07347915871416
-32.53314577306489
-31.07682564576894
-29.76440654048959
-28.642628845516
-27.7418782264436
-27.07562957149587
-26.64249581166574
-26.43041288690277
-26.42206291002096
-26.60033543705773
-26.95259232566228
-27.47274959465288
-28.16068575679166
-29.01917055194241
-30.04919462673919
-31.24499699797678
-32.59008061949132
-34.05515790918442
-35.59848829939837
-37.1686038382457
-38.70898266058962
-40.16383651068104
-41.48392024630024
-42.63122841803042
-43.58162816700954
-44.32490041963843
-44.86230110324347
-45.20242787806386
-45.35659877206101
-45.33496169892014
-45.14425191660277
-44.78769867466369
-44.26712905838357
-43.58678090303656
-42.75779769540804
-41.80209096184314
-40.75436206683292
-39.661479141352
-38.57898023570964
-37.56515913946197
-36.67383758137196
-35.94728505440829
-35.41067055524878
-35.06902194493333
-34.90716111678307
-34.89259725581432
-34.9808619192748
-35.12228752212752
-35.26894366180485
-35.38047051474671
-35.42783264313626
-35.39448975013576
-35.27510230210376
-35.07250974151498
-34.79408708920693
-34.44856098762855
-34.04404340196012
-33.58763418964559
-33.08656453784913
-32.55047565378649
-31.99407503074718
-31.43922989446266
-30.91563199947108
-30.45945374170211
-30.10986248145761
-29.90383499382198
-29.87027024188683
-30.02469282382285
-30.36573251720246
-30.87414556511551
-31.51462489817416
-32.24016799416582
-32.99834622844467
-33.73847226514289
-34.41847609775556
-35.01031304648693
-35.50292231674896
-35.90215994979315
-36.22775543653676
-36.50803033979945
-36.77359596607773
-37.0513441658655
-37.35981302244733
-37.70661707274687
-38.08818153505872
-38.49154112794628
-38.89755296619745
-39.28466521105654
-39.63238699112294
-39.9237394467339
-40.14623507222247
-40.29137273610445
-40.35313870366233
-40.32632621624713
-40.20547072555396
-39.98491480663044
-39.66015413866426
-39.2302521881352
-38.70070898706501
-38.0858130454922
-37.40942449188919
-36.7034151177438
-36.00347741862788
-35.34257252430617
-34.74287958466242
-34.20762347979461
-33.71436001487986
-33.21104651465591
-32.61564202183479
-31.81933355362393
-30.69292929169157
-29.09550714551655
-26.88410693571103
-23.92319475362245
-20.09277834376545
-15.2943226472949
-9.45401089454824
-2.523421286361066
5.521830245652181
14.68474560036194
24.95035425306578
36.28972052816698
48.66467571542482
62.03337789612253
76.35645194017916
91.60291789278075
107.7545710811374
124.8070900533729
142.7660589506049
161.636535151392
181.4059996276017
202.0223850007874
223.3708362967402
245.254242620133
267.3829364294399
289.3781209034772
310.7914445278396
331.139756058905
349.9502081668974
366.8078356072685
381.3963040749815
393.5228150287176
403.1204600524936
410.2259493724293
414.9366481535732
417.3560814550551
417.5397169401159
415.4526060575318
410.9481125680111
403.77300666787
393.5987755715328
380.0731223788899
362.8813777308572
341.8061612337457
316.7747157254355
287.8863415639576
255.417016317289
219.8034531040362
181.6125373374388
141.5030977034114
100.1858429883285
58.38542136118078
16.80677981446791
-23.89358951983228
-63.13209368811368
-100.4188960814461
-135.3749247358984
-167.7433134831482
-197.3924256482076
-224.3073691704993
-248.5679934860794
-270.313944055964
-289.7009492545121
-306.855815773937
-321.8391127123232
-334.6235121364527
-345.0926214362001
-353.0609843027593
-358.3118823015378
-360.6462839929922
-359.933976936623
-356.1569685597976
-349.4362906910417
-340.0365652618407
-328.3474128665928
-314.8458050546581
-300.0474344815487
-284.456944507276
-268.5259263993033
-252.6245656558864
-237.0291569023356
-221.9246550897388
-207.4192361440113
-193.5662381467257
-180.3879815849079
-167.8962841705642
-156.1060420267054
-145.040500936876
-134.7290793919627
-125.2002863906373
-116.4730367972718
-108.5493449802965
-101.4102363834422
-95.01542422843345
-89.30637128303896
-84.21176496545091
-79.6539862484518
-75.55497672046829
-71.84025057237916
-68.44058233701065
-65.29174363269698
-62.33322135535149
-59.50702888309009
-56.75758121548565
-54.03319628792202
-51.28918040956862
-48.49186975005071
-45.6226652571188
-42.68104256819644
-39.68564267013808
-36.67285514043163
-33.6928401335022
-30.80357660329249
-28.06400589230425
-25.52747500760248
-23.23649824679142
-21.21950741999852
-19.48987284351848
-18.04708677839394
-16.87964310139693
-15.96888574556039
-15.29297114413455
-14.83011546870591
-14.56051826416071
-14.46676793407472
-14.53300593524242
-14.74345000330649
-15.08093459623667
-15.5259648001159
-16.05653495515345
-16.64872924393405
-17.27791112201371
-17.92013760104605
-18.55336436513368
-19.15807116897811
-19.71709985200239
-20.21472130847181
-20.63520766525371
-20.96140841745869
-21.17389954456198
-21.25114100566172
-21.17082027451803
-20.9123156221828
-20.46001873380716
-19.80702637918139
-18.9584457530316
-17.9334495225595
-16.76541902741126
-15.499941949949
-14.19089256310791
-12.89520883614892
-11.66723684074478
-10.55356930179392
-9.58913015228121
-8.79493117931009
-8.177598222662738
-7.730519610547355
-7.436292762263739
-7.27000880682304
-7.202836645851376
-7.205365144858486
-7.250241104025375
-7.313820419231233
-7.376820797551786
-7.42423506671393
-7.444908181149849
-7.431139883969228
-7.378502850897565
-7.285874357064793
-7.155543955003628
-6.993198628334085
-6.807598563628716
-6.60982338821247
-6.412052178208067
-6.225927447498391
-6.060672685620522
-5.921285681024327
-5.807237920746524
-5.712074253446246
-5.624104023041753
-5.528093453915279
-5.407636413925826
-5.247753283824528
-5.037225104736572
-4.770202260594528
-4.446751022634293
-4.072202439313237
-3.655399996618226
-3.206174523398823
-2.732578100960828
-2.238516138987369
-1.722348765809722
-1.176776979334254
-0.5899873697673723
0.05224851982744039
0.7639774300398146
1.556506894747791
2.436448495878732
3.404812165594554
4.457307846889657
5.585634633176433
6.779239471181868
8.026898235186167
9.317531822351572
10.63991942597353
11.98136818364857
13.32580230088078
14.65195522614329
15.93231026912166
17.13324664794308
18.21664086522027
19.14294202048179
19.87542378015069
20.3849638626437
20.65445794979743
20.68194647624641
20.48173670142146
20.0831995431673
19.52742895192217
18.86243000386075
18.13779204895144
17.39982190147142
16.68788664580013
16.03235281050065
15.45414667177011
14.96569538319962
14.57284094937813
14.27721055462536
14.07849046511283
13.97613619798668
13.97026797072791
14.06178564864489
14.25198706535065
14.54209985725297
14.93311350147474
15.42615125139872
16.02340190246931
16.72940079622435
17.55226114843224
18.50434810258029
19.60190525969731
20.86333035406414
22.30613441258255
23.94301043784603
25.77775914398245
27.80196848005476
29.99326550941529
32.31566407284218
34.72210458913577
37.15885150464653
39.57106878514368
41.9086423261426
44.13117075722483
46.21110380911088
48.13437171382284
49.89845979546964
51.50852357333908
52.97260108290609
54.29716858260448
55.48419132121381
56.53042830451394
57.42910267957551
58.17337150614471
58.76059573821685
59.19627632781058
59.49656761746099
59.68850267341831
59.80757086030394
59.89301337675582
59.98186912025147
60.10315400845332
60.27353896508841
60.49558540870741
60.75904586811058
61.04498736705408
61.33177078051872
61.60150868952923
61.84557053030097
62.0678642685434
62.28499209467848
62.52305644451754
62.81178075508862
63.17736241757743
63.63579739349944
64.1882771319788
64.8197997365299
65.50144544958387
66.19590073121526
66.86501459827642
67.47773818358442
68.0167640838336
68.4823847848741
68.89253573436004
69.2787971975851
69.6791668096069
70.12927203977466
70.65403475243383
71.26162052358897
71.94099835139362
72.66370632251513
73.38947517614167
74.07440930806484
74.67983922286781
75.1798820023546
75.56602893975312
75.84765266629789
76.04824549180756
76.19831126711206
76.32671631580601
76.45262740756021
76.579930370756
76.69543869372373
76.77139046997219
76.77174584888114
76.6608691228695
76.41264279789029
76.01798563165447
75.48899415671478
74.85851297728101
74.17495784561567
73.49345674642093
72.86534108218068
72.32834611496544
71.8995922651842
71.5727711379102
71.32010504040943
71.0986208699279
70.85929009553841
70.55700545925734
70.1593169594168
69.65216445116766
69.04142843793369
68.35001528265444
67.6112562599591
66.86025462037911
66.12516521656413
65.4202459149616
64.7420707012703
64.06964359833059
63.36830105320362
62.59640646344383
61.7132656780222
60.68657421360814
59.4979044399593
58.14514518701566
56.64144678889055
55.0110283842723
53.28291592466417
51.48407042771083
49.63339866482939
47.73790494354452
45.79180016561406
43.77873537011136
41.67659519379877
39.4637463119518
37.12544853448812
34.65921953677048
32.07817937558632
29.41177881830922
26.70381942813286
24.00818682161964
21.38310296728957
18.88488750495996
16.5622074256621
14.45163452928102
12.57506531199676
10.93922890495111
9.537171622313124
8.351318483364862
7.357503169128547
6.529244513843229
5.841551569342529
5.273673261361004
4.810455132738721
4.442271809563772
4.163786518094198
3.971970013494995
3.863872644533204
3.834622600469981
3.87604866614809
3.976196293631369
4.119830908059464
4.289827900656891
4.469152929060725
4.642962666250728
4.800262662446587
4.934619240333718
5.043661706569236
5.127450689760725
5.186079777793524
5.217030507863554
5.212843151168065
5.159645959436882
5.036983216158953
4.819166112718117
4.478072062528412
3.987002169852985
3.324928214522725
2.48028856637607
1.453518435286673
0.2577683519657527
-1.082308814175622
-2.533421375488305
-4.057621830743703
-5.616752337561826
-7.176630236144016
-8.710268923836
-10.19957754391587
-11.6352464210982
-13.01486502754415
-14.33970121028772
-15.61090812733926
-16.82607992395695
-17.97696751919952
-19.04885487622717
-20.02172707620648
-20.87301717029383
-21.58141211453151
-22.13098053501225
-22.51482690137789
-22.73755452914961
-22.81597398036433
-22.77775781161731
-22.65816829172413
-22.49547449506403
-22.32601361823917
-22.17989187150758
-22.07809836910016
-22.03146627044088
-22.04155067150901
-22.10310754792678
-22.20750035388309
-22.34615492379843
-22.51319321959771
-22.7065651626038
-22.92733716423885
-23.1772735724935
-23.45535237850069
-23.75418784919292
-24.05735659025363
-24.33838197014255
-24.56177564985374
-24.6861591370269
-24.66908800712806
-24.47280737817933
-24.06990429639545
-23.4477804266078
-22.61104324751401
-21.581299127071
-20.39440436076866
-19.09583706610508
-17.73525082797326
-16.36131648785206
-15.01770888516387
-13.74072430482626
-12.55864496328935
-11.49261570485454
-10.5584799773463
-9.768818951105155
-9.134421152792441
-8.664586799971783
-8.366025764610479
-8.240592919837848
-8.282568851857771
-8.476425543580953
-8.795900623375864
-9.204827015444682
-9.659740366420026
-10.11394353414209
-10.5224086119482
-10.84662668142435
-11.05841593996533
-11.14189264088383
-11.09322784695163
-10.91831174647397
-10.6289350117378
-10.23847077261102
-9.758147585985139
-9.194766618824655
-8.55025498776648
-7.822993029803992
-7.010527069208144
-6.113036426875574
-5.13674227263717
-4.096416052658975
-3.016318075956313
-1.929215918111997
-0.8735404722905553
0.110807359223092
0.9871075599464486
1.725912880090297
2.307769807599738
2.72418016043499
2.976846764408022
3.075548044620504
3.035160182789913
2.872446840381626
2.603273398567214
2.240841945356959
1.795348057202463
1.275114578332139
0.6888206417627534
0.04808152562716839
-0.6304743400525613
-1.324291965240744
-2.005430914717337
-2.642497621936133
-3.203655646744433
-3.660202173563544
-3.990021589857563
-4.180169621101817
-4.227998132298117
-4.140559266979869
-3.932424985922562
-3.622443240895063
-3.230225432005602
-2.773201573862288
-2.264855893482266
-1.714383955213222
-1.127671254476007
-0.509260476286537
0.1351930967772366
0.7965992812192187
1.460868347247698
2.108570075058699
2.716007214377822
3.257562484404831
3.708840591649725
4.049877626151335
4.267649088980212
4.357312087301294
4.321965424532791
4.171035989485503
3.917612051986041
3.57518545890281
3.154393277337728
2.660429551384891
2.091749821642629
1.440481535531763
0.6945997629490781
-0.1585049539555628
-1.127815871555971
-2.214752509629399
-3.410322104618821
-4.693887709212736
-6.033746856429898
-7.389424502463691
-8.715336082839496
-9.965257286859167
-11.09688461922952
-12.07573508262137
-12.87773918823284
-13.49014688579163
-13.91076790795782
-14.14597809908658
-14.2081653012477
-14.11328580569629
-13.87903194132245
-13.52389375191908
-13.06716344606381
-12.5296557538776
-11.93466617024332
-11.30859692488735
-10.68077776547144
-10.08221045590982
-9.543222510227281
-9.09032684177679
-8.742879663612081
-8.510268040605432
-8.390266504710269
-8.368949367029227
-8.422260883678703
-8.519079707960387
-8.625346855660206
-8.708596246416658
-8.742135434556808
-8.708201294226777
-8.599603665478726
-8.419638082281717
-8.180393609229943
-7.899927730135399
-7.598989782658884
-7.297974651943482
-7.014631729403242
-6.762841920402606
-6.55255305017649
-6.390727106386495
-6.282930494559441
-6.235052062512207
-6.254587822964167
-6.350991744827908
-6.534796521724448
-6.815561495231565
-7.199090994265762
-7.684612427394168
-8.262623274604138
-8.913956803334429
-9.610379282420894
-10.31677084799712
-10.99465713056751
-11.60657434633033
-12.12054326814187
-12.51385378756401
-12.77543551069319
-12.90633338599889
-12.91822273478629
-12.83037567819793
-12.66584121082262
-12.4477031424094
-12.19616145882482
-11.92694885381912
-11.65130775217341
-11.3774184468253
-11.11282971050351
-10.86720791348773
-10.65465655612731
-10.49494995256427
-10.4132576719393
-10.43830724559043
-10.5993584911948
-10.92267834302637
-11.42829162112855
-12.12766238668344
-13.02273800883291
-14.1065204988493
-15.36500645714111
-16.78000205093485
-18.33209843712977
-20.0030553601973
-21.77695464043744
-23.63973262677319
-25.57709445728613
-27.57128087557354
-29.59752914759105
-31.62120999537443
-33.59653079518508
-35.46743492687968
-37.17091922873751
-38.64246345252256
-39.82276713596077
-40.66469760098196
-41.13928099807634
-41.23964014932957
-40.98203658068064
-40.40369126837106
-39.55774403265094
-38.50631446529359
-37.31295940951846
-36.0358665807197
-34.72294664527922
-33.4095994968407
-32.11932352227637
-30.86664602131581
-29.66134986087744
-28.51280319008884
-27.43329749788737
-26.43958085511892
-25.55223337815491
-24.79310545121317
-24.18154159815669
-23.73037825639515
-23.44270454531714
-23.31018199169465
-23.31338441202158
-23.42416420590912
-23.60956835808914
-23.83647472187619
-24.07597345015301
-24.30655315325004
-24.51536994536787
-24.69731415658018
-24.85216309755834
-24.98060938732901
-25.08020639595216
-25.14225141045268
-25.15041586703297
-25.08158281553314
-24.90885586655175
-24.60613274246286
-24.15320047619035
-23.54017241045192
-22.77023610492775
-21.86004218030465
-20.83759044270811
-19.73805646094426
-18.59846311501743
-17.45229726285031
-16.32510229576571
-15.23183984128969
-14.17647679702002
-13.15381355870828
-12.15306883478225
-11.1623439705916
-10.17295456180812
-9.182733068248142
-8.197696181207382
-7.231883933766299
-6.305631029691374
-5.442874279550041
-4.668216204603459
-4.00436816295038
-3.47039793748753
-3.080988332749904
-2.846675140939256
-2.774782032726071
-2.870581010321959
-3.138146576631411
-3.580447442113927
-4.198431940926593
-4.989204185963155
-5.943762150785403
-7.045006867903147
-8.266720889511909
-9.573988915024632
-10.92521730364822
-12.27558238773575
-13.581420272434
-14.80482170358781
-15.91760928525119
-16.90396361114529
-17.76116647962103
-18.49822891426773
-19.13259088524415
-19.68553863653759
-20.17729802217357
-20.62279781830722
-21.02889951619458
-21.39359624426877
-21.70733576701894
-21.95616973040063
-22.12595002783445
-22.20652214462683
-22.1949279435806
-22.09691579091409
-21.92643489400579
-21.70323699974916
-21.44916453078899
-21.18401497468386
-20.92191985946554
-20.66899916350195
-20.42276697271647
-20.17342132458362
-19.90674112874641
-19.6079201431465
-19.26545605743451
-18.87423175820734
-18.43709721975743
-17.96455233312138
-17.47256695579614
-16.9790722598393
-16.50001529661901
-16.04593900874554
-15.61986118983102
-15.21691367683728
-14.82585382515463
-14.43218529697636
-14.02227252656092
-13.58760222176538
-13.12827891683454
-12.65493104962976
-12.18848011604507
-11.75770487238372
-11.39509106286121
-11.1318719608029
-10.99328905906787
-10.99495634606028
-11.14091620897134
-11.42362188745521
-11.82570511919578
-12.32304409488602
-12.88842375767593
-13.49501118898841
-14.11893260273289
-14.7404470820895
-15.34358514451495
-15.91457134894754
-16.43969548901304
-16.90340062857117
-17.28723571622618
-17.57008639766011
-17.72980619872719
-17.74601361473525
-17.603472987151
-17.29529846635927
-16.82526507905724
-16.20868922579805
-15.47159518548689
-14.64823494478921
-13.7774307803896
-12.89850600413154
-12.04762536002303
-11.25519438542937
-10.54467823421865
-9.93287862206441
-9.431393783014617
-9.048749455830366
-8.792586498301072
-8.67129285077455
-8.694539146592541
-8.87237846749081
-9.212957725137427
-9.719361380378972
-10.38644977712139
-11.19860614996038
-12.1290885631003
-13.14133832632484
-14.19222101352819
-15.236769526744
-16.23361036391682
-17.15004155121776
-17.96578400812683
-18.67468147798396
-19.28400006204007
-19.81146043267104
-20.28064828616178
-20.71581150407287
-21.13712275349764
-21.55728786168909
-21.98005440577066
-22.40081087568311
-22.80905252711778
-23.19206023274648
-23.53883995763475
-23.84330679512942
-24.10585185854221
-24.33278064960017
-24.53364940273796
-24.71712818949579
-24.88645390303074
-25.03564116003679
-25.1474230368479
-25.19353704843733
-25.13753434794094
-24.93976579689995
-24.56366733090069
-23.98213729078104
-23.18279043729367
-22.17111664176074
-20.97097182419211
-19.62235090895026
-18.17694742420294
-16.69241278317866
-15.22636300983676
-13.83106960114133
-12.54953356114222
-11.41334922579592
-10.44241694922742
-9.646199203524192
-9.025941309742285
-8.577162128123401
-8.291749922641301
-8.159171846395468
-8.166628769194466
-8.298377852253534
-8.534738464944432
-8.8513775584384
-9.219359026125767
-9.606243358036469
-9.978304985533768
-10.30367636121221
-10.55593218844548
-10.71740251472872
-10.78146699741891
-10.75324569231458
-10.64841331173712
-10.49027254077089
-10.30563446806616
-10.12033087636136
-9.955233652853977
-9.823507241196952
-9.729572454650379
-9.669976289144396
-9.636009920653454
-9.617491965220982
-9.606789621001612
-9.602071015877433
-9.608988990825413
-9.6403904460742
-9.714131604859192
-9.849547140621638
-10.06341801083333
-10.36631490986151
-10.76001058891705
-11.23638890539848
-11.7780052911038
-12.36014451189422
-12.95388585568333
-13.52945233620836
-14.05909908342543
-14.51896446826576
-14.88960250542148
-15.15529645037903
-15.30262636770025
-15.31897358763513
-15.19161002655683
-14.90780614681358
-14.45612888560713
-13.82884604997026
-13.02507421947134
-12.05402044472199
-10.93749558805971
-9.710913359462618
-8.422223016621963
-7.128618658966076
-5.891380024443228
-4.769692782714541
-3.81456942130338
-3.063933721778711
-2.53961074743937
-2.246560187903761
-2.174335597689994
-2.300440272219731
-2.594941980461962
-3.025466632217063
-3.561630865314327
-4.178133609312941
-4.856067121001382
-5.582457637317966
-6.34848239140581
-7.147076754425594
-7.970657469846674
-8.809501050033578
-9.651064053171508
-10.48029553680408
-11.28076982802074
-12.03627287653676
-12.7323706862355
-13.35749803753824
-13.90320029053373
-14.36334406899292
-14.73240605043933
-15.00328009182586
-15.16524606900654
-15.20270505917785
-15.09504444921898
-14.8176844773111
-14.34406074064044
-13.64804123079434
-12.70611743350545
-11.49871244209341
-10.01009333809308
-8.226605066519651
-6.133277063767982
-3.709301836999588
-0.9233036277438154
2.270528199349125
5.934582135201604
10.14784577446434
15.00386346782792
20.6069855530677
27.06740067711349
34.49544566058959
42.99555465343037
52.65997223631535
63.56210586299652
75.74926445486227
89.23467142561356
103.9891322732661
119.9334759095389
136.9335951147438
154.8002705397565
173.2957272078528
192.1478678396929
211.0713873551352
229.7929660595941
248.0761577683707
265.7408038236539
282.6719099113898
298.814254875575
314.1518887158941
328.6756018678548
342.3450312658445
355.0540310977758
366.6078660111532
376.7189722788244
385.0247133216286
391.1258320626688
394.6390899950931
395.2536835013918
392.7796261592196
387.1773886275034
378.5616219379527
367.1776309471698
353.3559570214721
337.4554185849464
319.8065410681369
300.6658042379571
280.1880754598162
258.4209702975889
235.3206568510754
210.784194958031
184.6904230593219
156.9408303367418
127.493444486788
96.38565454790565
63.74537779222049
29.79302411233736
-5.162010749883857
-40.72755344464821
-76.43703487305244
-111.7614549353977
-146.1270422160838
-178.9402319907587
-209.6202585083031
-237.6377389062
-262.555427287377
-284.0653450102112
-302.0153958825692
-316.4190082826196
-327.443687042523
-335.3784181134127
-340.5847589235745
-343.4406453972767
-344.2878588339588
-343.3929858326127
-340.9281750373241
-336.9735310766342
-331.5389132996535
-324.5996804320608
-316.1385259794063
-306.184355673425
-294.8398488723252
-282.2920637941092
-268.8045069971912
-254.6934044394974
-240.2943652193768
-225.9272447152748
-211.8663393050938
-198.3206099980409
-185.4257386556719
-173.2474950230871
-161.7942105251955
-151.0348353705828
-140.9182919906759
-131.3900858555741
-122.4034113578079
-113.9237895948468
-105.9280027395387
-98.39934198269953
-91.32171418244027
-84.6748460628189
-78.43189142882362
-72.55972029118321
-67.02145873549463
-61.78041223699412
-56.80418439825155
-52.06772884248348
-47.55445913689124
-43.25528695370867
-39.16618312147821
-35.28524977712717
-31.61030327301343
-28.13771495847175
-24.86284800257934
-21.78192866476726
-18.89472403294685
-16.20712974409033
-13.73276253436829
-11.49285667045543
-9.51414476085346
-7.824929890613305
-6.450089176862963
-5.406071840612836
-4.696934172684225
-4.31214687525225
-4.226514330057086
-4.402203999013038
-4.792558270595258
-5.346986821542841
-6.015944575930834
-6.754993635018725
-7.527245946699475
-8.30394074282575
-9.063389818813874
-9.788916332137028
-10.46659993946835
-11.08355668999687
-11.62719610560716
-12.08558014079123
-12.44876660010149
-12.71080682684789
-12.87183282350176
-12.93951170507084
-12.92919886111799
-12.86238845144374
-12.76346819177596
-12.65526431248857
-12.55428608867017
-12.46676328919271
-12.38641103493919
-12.29443787500389
-12.1618356001759
-11.95359104748268
-11.6341398360407
-11.1731294992155
-10.55045469194256
-9.759640979660217
-8.808964195120636
-7.720148035689018
-6.525022842930378
-5.261010507397356
-3.966524927608191
-2.6772403525589
-1.423776216617474
-0.2309033323018539
0.8819486441857038
1.899322656760529
2.808109336076953
3.596319691947656
4.252763799685051
4.767834455636505
5.135215698597321
5.353970382042772
5.430215322462407
5.377606307593866
5.21618923134622
4.969696274549869
4.661813122134959
4.312157263527965
3.932763432803396
3.525873927826507
3.083702712950884
2.590473128356752
2.026500893949019
1.373601571571245
0.6207670472110309
-0.2310674871437368
-1.166197611028216
-2.153869138858249
-3.150575617834668
-4.10447547839623
-4.961175139475796
-5.669967897422248
-6.189552548693094
-6.492343988748642
-6.566763906110942
-6.417278792567463
-6.062344046217611
-5.530779632309062
-4.857381387254383
-4.078651978529323
-3.229361608790826
-2.340306882167329
-1.437299005714245
-0.541186931610342
0.3314086048336798
1.167049227350979
1.954531712063102
2.684378470526781
3.348954568274437
3.943178330698979
4.465528442427945
4.91884254746337
5.31038577408603
5.650899807700577
5.952724189571342
6.227411981452355
6.483408011355979
6.724337376515003
6.948339833661276
7.148704868896411
7.315810505788871
7.440083465169937
7.515438838729397
7.542474423026158
7.530647624332248
7.498820882222416
7.473933040716293
7.488017477089016
7.574151917275485
7.762088240587719
8.074312433064968
8.523184711455455
9.109606425688819
9.82335900598945
10.64492923224925
11.54835734738494
12.50447263011668
13.48385555266297
14.45902034589568
15.40562345556273
16.30285122704987
17.13335759951164
17.88312761475335
18.54150894770484
19.10151547562818
19.56040601306952
19.9204232454677
20.18942316379172
20.38101119558964
20.5138242283498
20.60978545660145
20.69145713474537
20.77892005638291
20.88680804888081
21.02215061400871
21.18351624777818
21.36165580536331
21.54152285289187
21.70528459219796
21.83575015117401
21.91953263897917
21.94928288722489
21.92454761123774
21.85118005752926
21.73963459289372
21.60275542493209
21.45373638867594
21.30479648349683
21.16685382218197
21.0501611560959
20.96557282670842
20.92593052809775
20.94700642766174
21.04750204931968
21.24778368434524
21.56737562721122
22.02167481786633
22.61871812996962
23.35694305791047
24.22468694459932
25.20178222097948
26.26315902879266
27.38391668523141
28.54493619341108
29.73790206929156
30.96863833447111
32.25788730160058
33.63905011958837
35.15299607298329
36.84075392457526
38.73548052417852
40.85531704697038
43.1985404960673
45.7419400236342
48.44273323452659
51.24362810879938
54.07994603719236
56.88729676547005
59.60825960955534
62.19677722068302
64.61942738450153
66.85343218622725
68.8821104642734
70.68919579250364
72.25375142577631
73.54726796670819
74.53406534381718
75.17540972235882
75.43679489948504
75.29686353476887
74.75591363516831
73.8420234708724
72.61329677927196
71.1553900288442
69.57436695790928
67.98595630726652
66.50313249403845
65.22427346231846
64.22393259322591
63.54767772695985
63.21165777645245
63.20662781967123
63.50528004809967
64.0711618213754
64.86728535242135
65.86263894758838
67.03521090169573
68.37093601135092
69.85904550592605
71.48526067395771
73.22478030193822
75.03699933390045
76.86346662142267
78.62983292814361
80.25158029009691
81.64247185967375
82.72419944975525
83.43556720287017
83.7395425709331
83.62672501038006
83.11445243002139
82.2417985883074
81.06170718247833
79.63210254942773
78.00792760262254
76.2357663405162
74.35204288076753
72.38480224976186
70.35808464647248
68.29733429475084
66.23422933718321
64.20954475235035
62.27304142922874
60.47999190399807
58.88477721488348
57.53276496239439
56.45214176035866
55.64743957054321
55.0962305942026
54.74992699601341
54.53882423064269
54.38061695288755
54.1909079149657
53.89392157570494
53.43166881500129
52.77009484468251
51.90128245971823
50.84153088554564
49.6259126973158
48.30053655557636
46.91409689262677
45.51032608846315
44.12266326561014
42.77185591234024
41.46649135426148
40.20586980706275
38.98430010053426
37.7957565962951
36.63782078874704
35.51398671678579
34.43376689255768
33.41053752114451
32.45760417851289
31.58342664350851
30.78717838557731
30.05574898423151
29.36295650211439
28.67125347258843
27.93573826903947
27.10990280855312
26.15225012228421
25.03269415534928
23.73756455897156
22.27216415434427
20.66021850745166
18.94018713098742
17.1591064439036
15.36514008881477
13.60016752759109
11.89363528225647
10.25868392757723
8.691245786074397
7.172304321120415
5.672884181101627
4.160794708041665
2.607815193926849
0.9959266709190624
-0.6786075566960232
-2.404022654998252
-4.154752315618902
-5.895544216430939
-7.587176345514701
-9.19282856075656
-10.68408954306264
-12.04559236599979
-13.27746189132828
-14.39511797204678
-15.42644798981519
-16.40688179081615
-17.37336377916902
-18.35845350298807
-19.38568245044142
-20.46690314214057
-21.60187694188835
-22.77991629043329
-23.98305569641618
-25.18997880082929
-26.37983152606921
-27.53512729810625
-28.64315846205735
-29.69564928998395
-30.68682010742159
-31.61048790684785
-32.45712220286384
-33.21177297387786
-33.8535277528014
-34.35678925515674
-34.69428542701523
-34.84132979414121
-34.78050711414149
-34.50581908500464
-34.02543085916512
-33.3624138003298
-32.55322637545844
-31.64412723243077
-30.68620027667357
-29.73000209348647
-28.8208711543553
-27.99569417197177
-27.28155977034947
-26.69635336744136
-26.25097496362608
-25.9525280068711
-25.80762608993706
-25.82494058975417
-26.01624865887063
-26.39554785934894
-26.97628895178544
-27.76732614339125
-28.76857704923736
-29.96746682583974
-31.33701810899076
-32.83607395754639
-34.41171745728057
-36.00353185456271
-37.54899675191368
-38.98911694416551
-40.27333706778304
-41.36288577172398
-42.23196859236145
-42.86672905940226
-43.26249151280918
-43.42022950179619
-43.3433020296207
-43.03531287255345
-42.49963286794682
-41.74073726890249
-40.76700584879835
-39.59411284561769
-38.24787432311751
-36.76555849153905
-35.19505612205303
-33.59177850139739
-32.01365502423728
-30.51508737325905
-29.14102076630893
-27.9222747342735
-26.87297155892582
-25.99048862074265
-25.25796454769743
-24.64897684707849
-24.13356482523491
-23.68444255261716
-23.28219193019278
-22.91845001261277
-22.59653468035852
-22.32952714861474
-22.13642814611896
-22.03742280578852
-22.04937295945919
-22.18242660475608
-22.43825802099221
-22.81007658488208
-23.28420164939032
-23.84269062094369
-24.46627683333535
-25.13678925943301
-25.8383279695945
-26.5567920643132
-27.27788066718615
-27.98424759660608
-28.6528333953878
-29.25337097039144
-29.74872627666282
-30.09729168131393
-30.25722758330656
-30.19194552529632
-29.87586907853887
-29.29933109810651
-28.47155542119063
-27.42098722569239
-26.19272448678471
-24.84342073792023
-23.43463307237973
-22.02594527271703
-20.66915386410859
-19.40442697480132
-18.25885162521929
-17.24734791320271
-16.3755521360228
-15.64391232583244
-15.05196764833966
-14.60171998817729
-14.29920679277173
-14.1538379683231
-14.17569289097943
-14.37159934117599
-14.74117967509638
-15.27399314627131
-15.94849318925739
-16.73299577210309
-17.58842098393834
-18.47224603462718
-19.342857590524
-20.16337710930866
-20.90413816531512
-21.54330479017167
-22.06557296403114
-22.45943107876298
-22.71393019647251
-22.81611414453971
-22.75005390002141
-22.49792822468309
-22.04305687119458
-21.37437377623045
-20.49147106816542
-19.40904506462559
-18.15952321772683
-16.79297957393576
-15.3740337620049
-13.97607089202415
-12.67370309535922
-11.53481700391321
-10.61366136761253
-9.946134534205443
-9.547850111874954
-9.414972048912151
-9.527404642073037
-9.85363814516652
-10.35629023401132
-10.9972501299726
-11.74148131050557
-12.55894013501338
-13.42456667664203
-14.31678249666421
-15.21529524052034
-16.0991419147147
-16.9457269953717
-17.73120897697923
-18.43215722831711
-19.02807390469132
-19.5041613515796
-19.8536244023079
-20.07887534880816
-20.19122718687713
-20.2089348680745
-20.15376653578813
-20.04667876929482
-19.90353271912149
-19.73191697594788
-19.5299128437265
-19.28714383274822
-18.98793005365677
-18.61596454558179
-18.15962943420565
-17.61688280905114
-16.99866793455941
-16.33005211845074
-15.64870698233974
-15.00082879132501
-14.4351368707507
-13.99606596946666
-13.71748701476415
-13.61812902953386
-13.69941672426431
-13.94591391948218
-14.32814609190243
-14.80727237203226
-15.34083911066988
-15.88869276603554
-16.418110952654
-16.90735567289212
-17.34717992141876
-17.7402996706923
-18.09933638418721
-18.44403708581826
-18.79857290846418
-19.18946284670562
-19.6443384752672
-20.19147806701734
-20.85980107537057
-21.67882924640655
-22.6780598804891
-23.88530753955286
