21.64114193264538
34.50744068469369
46.95031132554129
58.60662148970454
69.16046983748457
78.3619225282327
86.04060586094697
92.1126351845778
96.57983850641024
99.52132813648817
101.0788473929636
101.4382935259564
100.8100554079485
99.41052559236353
97.44668417209425
95.10508645496124
92.54588949795873
89.9017975428461
87.28106537255394
84.77296517432923
82.45354738197923
80.3895251217495
78.63894692792104
77.248650439787
76.24959588277935
75.6516520958935
75.43938786244901
75.57019461093684
75.9757057133917
76.56694889932109
77.24302503575186
77.90239994567524
78.45512253765418
78.83363519659211
78.9998017980076
78.94665255436313
78.69479543631911
78.28472359665636
77.76689049282145
77.1915194268921
76.59993919034096
76.0188821193618
75.4586279391225
74.91518858796323
74.37596128928932
73.82742410234255
73.26269922840379
72.686650628168
72.11694581976684
71.58089663676637
71.10916882569764
70.7281159013001
70.45258850563968
70.28085823488983
70.19288073861763
70.1525098508989
70.11354638863514
70.02873996913794
69.86005729338517
69.58784947096413
69.21645203068577
68.77457188452577
68.31029463757072
67.88197233860113
67.54708483229754
67.35137518687127
67.32036386017602
67.45486187726077
67.73136428559916
68.10733151774849
68.53046592330615
68.95017366845643
69.3286273149235
69.6486642103952
69.9165273083266
70.15896080928725
70.4157192495054
70.72954262801306
71.1359767799833
71.65525446481954
72.28792682187964
73.01513324976942
73.80348976969525
74.61367649265462
75.41089603927455
76.17459645280506
76.90467219715778
77.62217385150446
78.36418303695115
79.17421579684165
80.09061389178369
81.13566817820617
82.30787528654766
83.57898400015601
84.89652600402923
86.19153152492926
87.3901697584243
88.42708428038988
89.25739050977697
89.86419119533949
90.25947177936533
90.4781292473371
90.56682983705724
90.5705883264516
90.52018947615137
90.42308462745113
90.25952726008204
89.98468920857766
89.53645277342403
88.84751545570558
87.85937310396356
86.53493274371179
84.86652619343612
82.877328649779
80.61623117859214
78.14805162270915
75.54182684376752
72.8598351148535
70.14940719163351
67.43882545338518
64.73780323111852
62.04223597994746
59.34211661354851
56.63070393027916
53.91245805062453
51.20739858858406
48.55065718575903
45.98762652322173
43.56635827184706
41.32924356309323
39.30575877394275
37.50761384151605
35.92714837643798
34.53925880384681
33.3065468547135
32.18679290104819
31.14126359737006
30.1419168863453
29.17566308238105
28.24469396175084
27.36313096032985
26.55118484191697
25.82833732546429
25.20696333416608
24.68760708930742
24.25683574149546
23.8881468953183
23.54585253111502
23.19128132122317
22.79004307308145
22.31862044242472
21.7685604504469
21.14724807167769
20.47533489729275
19.78175501270746
19.09759034691534
18.45002780048865
17.85752909451525
17.3271187225285
16.85431228174017
16.42571560789121
16.02380014170851
15.63278747606758
15.2440730298544
14.85955627417653
14.4918677193342
14.16151059659427
13.89178825207275
13.7027649362588
13.60554511323511
13.59806234876017
13.66333913889285
13.7707540950261
13.88031005174425
13.94931863330953
13.94028750348804
13.828238177739
13.60558235213049
13.28330772623426
12.88830865047108
12.457664765484
12.03118234148543
11.64365513206404
11.31827546570534
11.06244878687392
10.86686264020154
10.70807672463583
10.55422236833431
10.3726532035409
10.13772386398804
9.83668187844623
9.472212805506738
9.061241075527438
8.630592855810445
8.210709521751811
7.828807155436083
7.502890365272251
7.23787171075123
7.024661869560765
6.842532064065312
6.664396264297957
6.463927216299525
6.22274154935934
5.935659887510939
5.612567438877503
5.276462048502136
4.95832319306375
4.690077196191806
4.497180833180591
4.39236386970617
4.37188433789881
4.415199459630836
4.488307825602799
4.55029833993166
4.561881516367546
4.493993927942066
4.334320499550459
4.090079063410273
3.786495471253505
3.461531618621581
3.158189690301109
2.916060406839724
2.76384829943214
2.714410769911913
2.763343944760296
2.891438788779848
3.070568028473404
3.271777446172866
3.473638716481988
3.668637978155731
3.86586109022207
4.089359500038627
4.372792480555334
4.751770880798786
5.255694571340666
5.900907716299707
6.686715745471536
7.595198545582747
8.59496444539432
9.64819325327522
10.71952688125901
11.78465986292852
12.83623399394222
13.88522521752091
14.95731574430061
16.08517716255536
17.29857392027916
18.6145710385518
20.03003165472449
21.51811509392222
23.0296870330808
24.4996023407129
25.85688544481807
27.03693159220201
27.99309711349122
28.70485447778405
29.1804499522424
29.45356472662997
29.57514432743932
29.60264670296739
29.58927727106893
29.57550392388725
29.5844579589384
29.62188999446903
29.6803928499599
29.74675872473409
29.81057381758795
29.87158603051445
29.94344839416826
30.05247563136976
30.23172669785967
30.51218817897608
30.91347519557
31.43635313668455
32.05885476263235
32.7369875615786
33.41009197043176
34.01001265345834
34.47248880108972
34.74852106652437
34.81307014230034
34.66872820862586
34.34327020770844
33.88182341965619
33.33586192915531
32.75174132748516
32.16119620429318
31.57556397665945
30.98468419937511
30.36053444660261
29.66483430998286
28.85914078647692
27.91534321748703
26.82409335898507
25.59898025188776
24.27540218121398
22.90468271379793
21.5452123556631
20.25281272333254
19.07229608556534
18.03169604302007
17.14003038686087
16.3887788333601
15.75661878415852
15.21640415735039
14.74285911845492
14.31910765135702
13.94031031618078
13.61351695569964
13.35404080089673
13.17960181411606
13.10384198827181
13.13070639161106
13.25086833023251
13.44096494177369
13.66591185804312
13.88401692826978
14.05404647556635
14.14283409016995
14.13161874804852
14.01939051821499
13.82229602958637
13.56932222504758
13.29545787789915
13.0339747027745
12.80943678905906
12.63276484386599
12.49927389799874
12.39009136207595
12.27677531135009
12.12832649554654
11.91915457381667
11.63608271172329
11.28249784023984
10.87848945295658
10.45700701670194
10.05712837408971
9.716080803521864
9.461715792142861
9.306914720746924
9.247012774312905
9.260797771005437
9.315016499244727
9.371652911562167
9.396550983641957
9.36738833632211
9.278925525307603
9.144125207046178
8.990944283277491
8.855773898341011
8.775188929481786
8.777830361282163
8.8780719888719
9.072744622678531
9.34163196395388
9.651763251220695
9.964777362331295
10.24585932126339
10.47210976214534
10.63807920090148
10.75688037695819
10.85659512214034
10.97301415695874
11.14057306977591
11.38358003731159
11.70964198373832
12.1067144710432
12.54448586534062
12.97997597891476
13.36639747381995
13.66352439563953
13.84717010351862
13.915278393915
13.88889873008915
13.8077652380681
13.72167963391662
13.67982745194731
13.72041724938666
13.86281494678483
14.10378856173168
14.41864626765881
14.76709335471793
15.10270568513805
15.38406120006074
15.58491572270969
15.70073991914737
15.74978370941117
15.76840666566425
15.8020065545084
15.89386026541657
16.07444388063839
16.35353763862792
16.71679353420433
17.12752105583937
17.53341116090828
17.8769477716858
18.10738910299754
18.1915612000187
18.12068659166914
17.91140671102727
17.6008225616079
17.23702361870494
16.86754526530456
16.52839881240773
16.236007425063
15.9837104904567
15.74353679452348
15.47288310831302
15.12476141132069
14.65944043866566
14.05472872793235
13.31221388337979
12.45779069842392
11.53649197194757
10.60318769101626
9.711534058631564
8.903645312826146
8.202617660973232
7.609366423840863
7.104294711231375
6.653321288770701
6.21695859495502
5.760447928840517
5.262508147589156
4.720408684714962
4.150105728086204
3.581729417739019
3.051984842567966
2.595549740348924
2.237476536380834
1.988242202721776
1.842469666462198
1.781491485841086
1.779094804642924
1.809165231214937
1.853475254380588
1.907579139578747
1.983034796691102
2.105206335899836
2.307317945560438
2.622466157824338
3.075581916967837
3.677113994105407
4.419787390928916
5.27917340003938
6.21800347827728
7.193407430051667
8.165709153483828
9.106983325975785
10.00730647589282
10.87689285496721
11.74333674370047
12.64462653907302
13.61971163630339
14.69878373956903
15.89525684169488
17.20100632673442
18.58583345694371
20.00136113107318
21.3887681272294
22.68904216479735
23.8537825341951
24.85414228272158
25.68564210391242
26.36756768892468
26.93718560289649
27.44037730625562
27.9209785889239
28.4111162634054
28.92442787387487
29.45343210240089
29.97156447932271
30.43957214825032
30.81512766852657
31.0637127854882
31.1682201593392
31.13472056479289
30.9927360548884
30.78991614407429
30.58254962207861
30.42425625916091
30.35536467339629
30.39512398608237
30.53825293116635
30.75652080840558
31.00516546106467
31.23304566002113
31.39453580769781
31.46047530062806
31.42538576100291
31.30899330667206
31.15166507499274
31.00502776563358
30.92012799156319
30.93581049752644
31.06971588531153
31.31367169655948
31.63440379045895
31.97953553395415
32.28785858174204
32.50189719545233
32.58000869677993
32.50505921757861
32.2874432204875
31.96176169643219
31.57820358564957
31.1908890580286
30.84585474109653
30.57116208583023
30.37105059250277
30.22526163799291
30.09370374651776
29.92561231976993
29.67135178613698
29.29417834554853
28.77900605629409
28.13586825872576
27.39726189853099
26.61028765170083
25.82574012950163
25.08676205768621
24.41950887185967
23.82771316717376
23.29221337354619
22.77553458364316
22.230619293911
21.61187590294487
20.88597930331122
20.03968764265021
19.08268133959277
18.0449258895798
16.96961198705067
15.90368580834035
14.88823827773075
13.95081995550489
13.1012398630754
12.33162251319932
11.62057473425612
10.9404429149604
10.26589963155129
9.581601733078362
8.886750134788025
8.195315437348292
7.532149344259675
6.926394845325343
6.404049056619323
5.981405668071921
5.660786611526129
5.429525380561856
5.262501343196347
5.127753315987009
4.994011590948795
4.838440388230748
4.652575626277087
4.444694195767947
4.237863645870153
4.06430919220687
3.957732613616372
3.94544822923763
4.041948199850561
4.245153907560867
4.536163552472196
4.882656433441021
5.245370541458119
5.586416526072057
5.87767512633943
6.107243188796909
6.282165253368427
6.426706637355213
6.576797722760389
6.77226167250906
7.048680290652978
7.430534953993265
7.926924361508631
8.53069630893829
9.221153289297149
9.969753823487297
10.74761519669679
11.53313575216983
12.31776917022173
13.10823048405189
13.92441166185272
14.79366127800317
15.74309452105705
16.79187052001416
17.94514539646042
19.19101706070122
20.50123837081384
21.83573078478204
23.15013365236075
24.40495700545707
25.57439612930085
26.65260836411381
27.65557521906934
28.61778296098059
29.58448219345498
30.60147790674244
31.70481752151502
32.91254242175481
34.22016776920528
35.60084900833396
37.01030325758123
38.39564018410708
39.70646965885648
40.90601770738272
41.979629993069
42.93834513033832
43.8164121173452
44.66334154869184
45.53252746470484
46.46912510668839
47.49978069792522
48.62628210557833
49.82439011063681
51.04811051310342
52.23865194395875
53.33641061845071
54.29355137204076
55.08427065811512
55.71003592332486
56.19826902983119
56.59476548336654
56.95183314488541
57.31505710403326
57.71166560021861
58.1429555381502
58.58237301228829
58.97976937346945
59.27121512037858
59.39267702516969
59.29491230601022
58.95629587474004
58.39038440654052
57.64613916020058
56.80063618212058
55.94603313518149
55.1738067631065
54.55959399879128
54.15157365514838
53.96448391449563
53.98025860427239
54.15505228371061
54.43124525543259
54.75192812320267
55.07453530804005
55.38016464261737
55.67606577100752
55.99064284862764
56.36236351685606
56.82540474894468
57.39537852781252
58.0582243077945
58.76458172423769
59.43084082632409
59.94679385749341
60.18852371060943
60.03390361226233
59.37706295087328
58.13794964901091
56.26416329337869
53.72433771787138
50.4946365113554
46.54149724071965
41.80432210920427
36.18161028008873
29.52336871915685
21.63169243582197
12.27034279664582
1.183163043294784
-11.87967770088455
-27.12945733841676
-44.70365869473944
-64.632146827878
-86.81034397897778
-110.984911494593
-136.7561174239228
-163.5991729164419
-190.9047861074696
-218.0369252549278
-244.4032418780892
-269.5308414250371
-293.1369278714524
-315.1803061482671
-335.8777146813237
-355.6725481831237
-375.1547489788039
-394.9451359675319
-415.5675405554241
-437.3342790710119
-460.2668666939691
-484.0676492963306
-508.1503692956849
-531.728839198949
-553.9533340630576
-574.074007962908
-591.5997154503926
-606.4129238630984
-618.8050033779967
-629.4154638319511
-639.0865479070224
-648.6671511210561
-658.8092298866967
-669.7975862698049
-681.4455890715036
-693.0778979871696
-703.6074694577462
-711.6989230706528
-715.9940711846889
-715.3586033479795
-709.0966209523353
-697.0815526812432
-679.7728735310614
-658.1201956379208
-633.3843551539516
-606.9190272198888
-579.9568460985969
-553.4368164785856
-527.8990365147737
-503.4600092664209
-479.8681952941856
-456.6254974734094
-433.146792291219
-408.9202542352145
-383.6320158841328
-357.2314224511407
-329.9320613867056
-302.1601437029653
-274.4704636261721
-247.4513924495484
-221.6372718408219
-197.4416722913461
-175.1194530597848
-154.7599833843031
-136.3084374956289
-119.6069826817072
-104.4442086671106
-90.60101714284171
-77.88455359793447
-66.14676712286186
-55.28859837070909
-45.25341756553823
-36.01414572825096
-27.5581304079157
-19.87297616515297
-12.93554160991528
-6.705363475089889
-1.122866439487796
3.888111162584446
8.414547456708112
12.54656249872249
16.3692198455957
19.95510702098978
23.35874882816883
26.61349456052266
29.73111027075312
32.70401579325653
35.50989445013317
38.11819352366497
40.49779286280172
42.62484725146069
44.48952848277919
46.10022988283263
47.48403345943154
48.68307554774821
49.74761108741964
50.72745926016577
51.66375125254818
52.58262006828581
53.49197269111414
54.38193708408636
55.22901487066719
56.00338023598222
56.67811556462944
57.23848659160286
57.68887806098936
58.05520673664899
58.38176593810682
58.72313452754658
59.13317937226756
59.65375843914885
60.3055466370438
61.08280233713502
61.95313654652159
62.86253496349259
63.74501426109774
64.53534897123326
65.18235873875301
65.65963709052656
65.97087467146461
66.14830894706266
66.24480451316715
66.32172220692367
66.43550307065206
66.62581387647246
66.907511334997
67.26786300682072
67.66954162588902
68.05891971175105
68.37813438360867
68.57834998759635
68.63097166921278
68.53381211949376
68.3106055187374
68.0042651764632
67.66597313160366
67.34299190952335
67.06802290175438
66.85232783910593
66.68396309034708
66.5315038923901
66.35262904623798
66.10591145377941
65.76318017080477
65.31922590188235
64.79597062999659
64.23971263499612
63.71211532470861
63.27729098135892
62.98808834478362
62.87458392241398
62.93711594182601
63.14523545467438
63.44284694608788
63.7587034599911
64.02035596571187
64.16867908860317
64.16953213065125
64.01953271026686
63.74450995540681
63.39133773091154
63.01553768092494
62.66775059702546
62.38202611717447
62.1682430263425
62.01008477158165
61.86895955021381
61.69315142260477
61.4303806089164
61.0409440143419
60.50806773947404
59.84258831322377
59.08072889433821
58.27585933162576
57.48670571018349
56.76502013337091
56.1454479909208
55.63962960619443
55.23564606881241
54.90287404263669
54.60128980501517
54.29332123193061
53.95551765992511
53.58690215904237
53.211446944367
52.8738080371946
52.62954055965692
52.53245488361235
52.62213458840267
52.91422350533087
53.39535125035454
54.02369935553719
54.73525395474019
55.45479706059671
56.10969601731477
56.64364785907047
57.02709094196075
57.26156864205955
57.37703049009956
57.42315084483408
57.45721136731991
57.53149502933707
57.68275406562564
57.92559804624689
58.25084967812013
58.62909585649124
59.01880312857602
59.37742565859227
59.67298215697311
59.89302230781635
60.04834059858
60.17036916707659
60.30319342447283
60.49258369199992
60.77485997513367
61.16802816437974
61.6668866219488
62.24299564121186
62.84962311462827
63.43098432453237
63.93419250227722
64.32139258291892
64.57898412609103
64.72125297080551
64.7872738027508
64.83195687364646
64.91363375203811
65.08112376889028
65.3629311291848
65.7604902360091
66.24654806827706
66.76900059341527
67.25972207621118
67.64699436320717
67.86910056132378
67.88593326622366
67.68570408096006
67.28520591186943
66.7239805701909
66.05429633860314
65.32954052188467
64.59351427198895
63.87251932394323
63.17142695455791
62.47430010571123
61.74949948136092
60.95835693715325
60.06549748575747
59.04818522721622
57.90222983053058
56.64311455720506
55.30251955034388
53.92160178616368
52.54292444561544
51.20283982642108
49.92565764903083
48.72040294205811
47.58057553903779
46.48695791869003
45.41295706770517
44.33122636456468
43.21979767852964
42.06613621191675
40.86839241412039
39.63409958971448
38.37715807430418
37.11410231437682
35.86049363777206
34.62795919509849
33.42213280160549
32.24169162218703
31.0786671056438
29.91997030505355
28.74962058770545
27.55088983271782
26.30784584934528
25.00642507978222
23.63556685916624
22.18879038034667
20.666160974199
19.07620392370326
17.43710010211791
15.77654648557514
14.13002193775359
12.53761947144676
11.03978720863373
9.672293400182634
8.460858087936145
7.416398197675566
6.532340951702754
5.785287114412125
5.139327454978343
4.553150456727994
3.988301302427248
3.416679225367457
2.82558469327094
2.219307323883867
1.617081304209155
1.047860049074403
0.5427573165760992
0.1264683940388378
-0.1903781589717864
-0.4156686447228439
-0.5754242010918222
-0.7084703553204431
-0.8575602834419905
-1.059261032493774
-1.335139721984613
-1.686402096386521
-2.093212843290858
-2.518823157674941
-2.917758302649114
-3.246678208788818
-3.475833437307957
-3.598336130894686
-3.634381340215742
-3.628682222474215
-3.641396049653175
-3.7346741961431
-3.957999940676641
-4.3356878017113
-4.859391707119831
-5.487286004673064
-6.15015530461919
-6.763410759183009
-7.243032768742508
-7.522397419355099
-7.566110929708029
-7.377134324999354
-6.99512175122313
-6.486415887371451
-5.928308451743038
-5.391321255399555
-4.923485149941756
-4.540010347432804
-4.220432518394002
-3.913720883287157
-3.550411523224787
-3.059547191127676
-2.38688600463617
-1.509895673218119
-0.4453799981291083
0.7524399546310286
2.002799097138834
3.215393993943763
4.309561108237938
5.231423835752014
5.965353276002006
6.537408226454168
7.01007601637106
7.469151391098084
8.005034446648729
8.692265059313431
9.572189998483688
10.64326326438149
11.86133079110138
13.14938434663371
14.4140564960542
15.56501248419377
16.53308985339429
17.28346204270095
17.82129812218033
18.18895125445653
18.45516654979975
18.6982440185268
18.98669596699373
19.36211288726957
19.82865734747584
20.3516047830218
20.8647034993053
21.28412142746173
21.52571802645378
21.52200988099601
21.23544001104385
20.66550095444524
19.84855152253038
18.85038878425151
17.75290343015906
16.63765840631288
15.57044532798121
14.59076831853919
13.70850727691868
12.90771218006929
12.15579705008697
11.41562907568393
10.65777857728896
9.870369946729724
9.064617272521104
8.275029881315742
7.554153737354948
6.962672408126542
6.556898095506709
6.376731656089562
6.437217011273887
6.725569600294511
7.203784037346286
7.815631424801336
8.496302068676446
9.182813598080566
9.823409214736328
10.38453285469386
10.85445856655259
11.24309642020123
11.57798619862707
11.89722556288724
12.24090799741613
12.64302443718736
13.12539053846572
13.69433973551841
14.34025001046845
15.03962257306902
15.7592183549463
16.46157416928515
17.11109919406713
17.67987782234239
18.15222100552765
18.52700412543239
18.81713553769263
19.04619055450769
19.24302487357287
19.43562972430969
19.64548900129454
19.88344910463579
20.14780949088158
20.42500452403204
20.69284149900163
20.9258233227763
21.10167565883946
21.20782011492641
21.24624082059482
21.23523522520956
21.20720047847958
21.20277564431499
21.26276902356069
21.41980386607825
21.6914670503481
22.07628151742438
22.55329764733193
23.08551691346885
23.62670955055143
24.13055250542832
24.56044829413867
24.89792866855016
25.14744632835144
25.33599684991455
25.50742010973295
25.71280448259305
25.99937344033561
26.40031272402567
26.92753783072662
27.56877265779019
28.28956616172256
29.04000720676198
29.76503586611298
30.41648646565895
30.96435807577623
31.40452380715094
31.76061534486894
32.0793111787635
32.42015781161702
32.84244686602797
33.39209397306742
34.09116037679233
34.93202790135735
35.87739753763482
36.86624894190937
37.82482205878892
38.68068534377286
39.37707344069512
39.88415879761774
40.2042901532389
40.36974660498114
40.43370179737425
40.45685921227735
40.49296288538957
40.5762319775719
40.71315043710067
40.88018668281737
41.02797443977914
41.09135487057523
41.00354707133683
40.71162938378122
40.18976884292169
39.44681141719244
38.52626162255245
37.4988550475353
36.44984471135129
35.4640780469635
34.61197140900896
33.93898468051621
33.46040500604046
33.16226047109901
33.00811589172618
32.95041647318459
32.94394629012569
32.95811473663854
32.98476900722541
33.03942730760481
33.15582548262507
33.37552423571413
33.73535245367032
34.25563615949739
34.93178261686516
35.73105802333411
36.59541943751801
37.45017677882774
38.21714284548902
38.82977092520311
39.24682698004422
39.46102457304763
39.50022210129212
39.42089908627223
39.29571282389497
39.19818078954903
39.1878095524439
39.29860648308104
39.53312806023892
39.86316199941028
40.23694452435822
40.59157866048444
40.86807816570479
41.0254727876878
41.05029237928187
40.95894869286012
40.79268754653981
40.60687022731976
40.45753618101772
40.38839967288438
40.42099565887921
40.54991079588832
40.7440430397705
40.95372896371011
41.12242371686863
41.20044703393168
41.15740134540304
40.98985062353385
40.72213502989061
40.40034582993669
40.08142810232562
39.82034524238419
39.65824957884485
39.61407403808743
39.68116577178038
39.82962276519611
40.01396236391617
40.18469795599828
40.30133848456077
40.34351832601498
40.31702908260169
40.25286986831585
40.19960567706971
40.2112377380986
40.33368621152752
40.59292406159917
40.98721255070824
41.48503373931398
42.02929965159984
42.54735274624359
42.96518140969624
43.22312449641228
43.28941333918847
43.16789520863346
42.89767935105728
42.54480710477407
42.18822682776423
41.90348853091249
41.74764699701021
41.74829791265315
41.89875168226751
42.16021524435072
42.47066049659498
42.75885315347875
42.96075279415084
43.03445769352864
42.96978360607105
42.78993877651622
42.545150051088
42.30034034825842
42.1201573631071
42.05477152467947
42.12932551317559
42.33902596314903
42.65077226627646
43.0110746872496
43.35885484587197
43.64048287750198
43.82336246359426
43.90425761899623
43.909884471735
43.88965546096654
43.90271392234249
44.00262459686321
44.22322354109327
44.56858500059184
45.00912628586144
45.48470081864478
45.91430475583572
46.21082466189655
46.29805355077023
46.12623334015482
45.68227254220614
44.99200886049707
44.11410964948163
43.12742707673954
42.1149751143694
41.1480030517199
40.27323317573075
39.50551850851005
38.82712412052258
38.19368428129408
37.54570839361483
36.82329712771738
35.98070758331878
34.99714991163003
33.88116037623502
32.66781503617007
31.41003910665327
30.16653920512607
28.98926421763255
27.91304798670359
26.94945232777091
26.08594742208489
25.29057734833173
24.52123298725104
23.73756997769267
22.91265617530414
22.04117434655416
21.14189660092224
20.25391832644551
19.42791073421265
18.71470227387037
18.15376388489281
17.76395395303906
17.5383622860354
17.44432921689254
17.42880846332637
17.42826081529958
17.38118560573929
17.24041245857615
16.98198029994453
16.60831300946102
16.14518311292353
15.63371244416417
15.11966244441769
14.64249666850424
14.22648906500571
13.87566395308025
13.57360184404367
13.28823604728816
12.9807945834321
12.6169953394027
12.17766845481669
11.66575255713516
11.10757593531998
10.54816855903304
10.04206958666665
9.641977831020867
9.387714624084321
9.297722380202272
9.36482467534681
9.55719296569057
9.824531617213612
10.10853186880948
10.35561537054394
10.52903878839865
10.61716282795262
10.63563112038591
10.62307224833723
10.63174278082671
10.71550833992831
10.91774557210005
11.26153462912834
11.7440488012159
12.33630894972928
12.98855027972135
13.64044103488464
14.2342552765851
14.72800391421172
15.10509798449052
15.37793286982945
15.58462804814716
15.78008764669323
16.02374166398904
16.36669336691173
16.84086601934333
17.45228999505466
18.17990476655445
18.98026201663478
19.7974102307461
20.57601324082809
21.27459896545532
21.87537552910741
22.38786685016911
22.84551784299604
23.29646416937916
23.7909829508114
24.36856685316588
25.04739265832503
25.81839868308197
26.64530445399216
27.47082886205802
28.22819514824813
28.85573564123485
29.31122457264801
29.58212515996359
29.68883890362136
29.68009910890914
29.62187993261915
29.58265935071004
29.61835834164297
29.76007338807127
30.00705982183597
30.32640268760491
30.65959774151944
30.93500213120381
31.08380300676622
31.05597529477981
30.83226434315192
30.42909951803075
29.89534834935444
29.30204455363264
28.72775877206968
28.24286704160049
27.8958598716317
27.70426228912279
27.65180987115985
27.69240510817692
27.76018598164813
27.78376196931718
27.70147758840696
27.47402484344616
27.09138200317139
26.57277181859731
25.96030850582353
25.30842247729663
24.6717391429007
24.09404368202104
23.60052262172877
23.19473583533594
22.86083955502309
22.57053866694922
22.29311380223469
22.00585246078907
21.70187028134195
21.39308362041612
21.10772416149722
20.88343067228434
20.75794320842007
20.75970184646862
20.90047753310539
21.17168034686509
21.54523992050327
21.97905868160855
22.42610641224463
22.84525317175074
23.2111193198778
23.52011533123886
23.79086677163733
24.05900922451172
24.3679484696544
24.75796472465527
25.25608616221842
25.86883181287616
26.57934609280299
27.34961132655983
28.12746877270239
28.85723223261452
29.49173530373917
30.00289677608244
30.3878829234198
30.66910668533578
30.88823349949812
31.09605262163436
31.34083694393571
31.65776257157535
32.06150500388219
32.54344439316489
33.07403706589953
33.60997943394267
34.10488051335201
34.52122192266948
34.8406129289714
35.06934958539927
35.237506323644
35.39181517516166
35.58436754273514
35.85998234461963
36.24502822412524
36.73999758711307
37.31738434411928
37.92544450240577
38.4973597520209
38.96429444461219
39.26983243712908
39.38250587314848
39.30316557723816
39.0652191173419
38.72787204559952
38.36439129930801
38.0483097244485
37.84048624593535
37.77947010802369
37.87688947919078
38.11862421530444
38.47146261049839
38.89389747005288
39.34868356100748
39.81395814823579
40.28970586694419
40.79756913691644
41.37408786122828
42.05936769652442
42.88415495769294
43.85835254662089
44.96352864481824
46.15114836926834
47.34717695870724
48.46253963163656
49.4077992533461
50.10930884397397
50.52321779153816
50.64367844858411
50.50289666566681
50.16294554669803
49.70145885351833
49.19456927625198
48.70067387174281
48.24816816258252
47.82943939615596
47.40225109970793
46.89836394242445
46.23796179685099
45.34719321545136
44.17509854408849
42.7059618380597
40.96418752491918
39.01088067495632
36.93346144438225
34.83103039017669
32.79865927353158
30.91360018438469
29.22580690170604
27.75424598430063
26.48940897809713
25.40134336372784
24.45136732183082
23.60457096122024
22.83978862235449
22.15444015662418
21.56328357287916
21.09190040467524
20.76694421538971
20.60567493148385
20.60727630453284
20.74802348016262
20.98156393326529
21.24456458348851
21.46692622480683
21.58467560747826
21.55266420552714
21.3538701281775
21.00288353443151
20.5428259640811
20.03669237926482
19.55523686990554
19.1639668732727
18.91179022854747
18.82345305547063
18.8971168519835
19.10742526430186
19.41337868722046
19.76925989006963
20.13588393939747
20.48913959238008
20.82361313001587
21.15074752407407
21.49260124084006
21.87318054593529
22.30955835340942
22.80486891847244
23.34485478564957
23.89889901555428
24.42554328927496
24.88153628493541
25.23248487112827
25.46236447536038
25.57904704370291
25.6140560035635
25.61658540579492
25.6434532540304
25.74744221344639
25.96652964820661
26.3162073319153
26.78652897458798
27.34465461660568
27.94263163416226
28.52913102210038
29.06284944812618
29.52446365739365
29.92395328897312
30.30123073098941
30.71996210077421
31.25624146946411
31.98469822870254
32.96475925464658
34.22953743804426
35.77928287478661
37.58046419910679
39.570465408876
41.66673651154385
43.77805007394122
45.81454569828533
47.6931822967636
49.33656169899196
50.66537156187125
51.5867420418383
51.98179898924152
51.695712499343
50.5330407564679
48.26034355749753
44.61691820090861
39.33328090310104
32.15588822665207
22.87562401832903
11.35683003101823
-2.436732728898214
-18.42254686211345
-36.38965411779171
-56.00076279401837
-76.80728874800525
-98.27752628782964
-119.8371448711561
-140.9199887635972
-161.0256961416383
-179.7789092620698
-196.9825257527347
-212.6545243292662
-227.0361477856217
-240.5621772662124
-253.7931442511909
-267.3206403195369
-281.6642564879609
-297.179827500466
-313.9956987915464
-331.9890915327252
-350.8088939605906
-369.9443635290826
-388.831640192754
-406.9814664812791
-424.102003183452
-440.1838104230431
-455.5176467711297
-470.6333146665006
-486.1718782327294
-502.7216276763545
-520.6542082917556
-539.9943056805963
-560.3489698258032
-580.9128630084324
-600.5537378482356
-617.9691248164108
-631.8909005515227
-641.2996847713729
-645.6009512342946
-644.718536643511
-639.082651845565
-629.5197518921568
-617.0759363336751
-602.8157768406379
-587.6367174857321
-572.1311955046473
-556.5176588215742
-540.6489457919089
-524.0932392493985
-506.2697035263409
-486.6088724678619
-464.700832535211
-440.3977686493538
-413.8522109490442
-385.4916787163395
-355.9456035641352
-325.9470762526973
-296.2313619632195
-267.4487008911179
-240.1030827927591
-214.5225923901232
-190.8611815790404
-169.1265332854002
-149.2243137174719
-131.0067686477835
-114.314680402194
-99.0058740880107
-84.96865232574415
-72.12257361357449
-60.41094349831597
-49.78954593975226
-40.21527407906845
-31.63708717639424
-23.99052755321313
-17.19606062856743
-11.160769531466
-5.782462598242981
-0.9551355480488
3.425067364763069
7.453991471323489
11.21418985036271
14.77066844625343
18.16804840624123
21.42946025741288
24.55741178780004
27.53676167913009
30.33974098910052
32.93269475147635
35.28386101503664
37.37105065711931
39.18768038527303
40.7456223983575
42.0740436665598
43.21456432157231
44.2140504320173
45.11677836521807
45.95763097672027
46.75764727991242
47.5227797736296
48.2461568298042
48.91352837686298
49.51088488226541
50.03249415484841
50.48705253269526
50.89980609746151
51.30962369594783
51.76164546077639
52.29744152924101
52.94510705938532
53.71151137282655
54.57835754581929
55.50300395015394
56.424221246423
57.2722355555447
57.98152504731975
58.50392317193629
58.81896545571934
58.93868272052339
58.90544227823616
58.78342557093295
58.6459541478367
58.56157522905438
58.58168930297664
58.73192466963485
59.00870566496408
59.38161424240417
59.80121309533909
60.21094955450614
60.5606495647127
60.81832144437568
60.97714595789089
61.05589591163344
61.09305428350618
61.13661140854082
61.23231816567179
61.41311114895808
61.69187520472918
62.05894676036686
62.48489873786598
62.92821140845246
63.34640556615182
63.70814798346403
64.00309694301703
64.24644977701709
64.47656213129217
64.74611298619257
65.10911700353253
65.60697485372606
66.25669269409917
67.04374460007207
67.92109840592607
68.8148279879707
69.63557749767195
70.29396301531135
70.71687593016182
70.8609512644523
70.7197735058954
70.32296034592325
69.72754583701074
69.00407280314221
68.22080299487261
67.42943774232198
66.65507698866797
65.89216087551748
65.10701534438445
64.24646097989896
63.25077551715748
62.06819460155344
60.66744918483771
59.04514993424495
57.22634016795276
55.25863675241638
53.20205756088291
51.11732672045572
49.05528908308382
47.04945505943183
45.11289788573991
43.23986785713343
41.41165839516534
39.60544627013386
37.80402459816314
36.00384299525003
34.21908364233277
32.48076364005199
30.83145063855284
29.31728349219992
27.97929498270555
26.84579666072004
25.9271565623044
25.21383214987484
24.67802980038061
24.27882541155562
23.96993320156606
23.70855126287265
23.463146606198
23.21818165629406
22.97476774300047
22.74752718839603
22.55886227941508
22.43213375191156
22.38514747060614
22.42509955989438
22.54586095684819
22.72818382186674
22.94299638483398
23.15731278873961
23.34144909562902
23.47556969557696
23.55363976898753
23.58377408538954
23.58521529391688
23.58305695844204
23.60211191663442
23.66120698162653
23.76892521186276
23.92155673330856
24.10375113801859
24.29198010211929
24.46030118225342
24.58710982649261
24.6609607653074
24.68366749953381
24.66984773701312
24.64330764715592
24.63147758431363
24.65932649093745
24.74399392306781
24.89105141815903
25.09300245955557
25.3303731945273
25.57541522598286
25.79789060834494
25.97167806560684
26.08041267067768
26.1205504633867
26.10118378513658
26.04105150436305
25.96387614510062
25.89328473564581
25.84835194569315
25.84047751784558
25.87202115995201
25.93690464197214
26.02314886859234
26.11688940171165
26.20683327944404
26.28773577893305
26.36172303528377
26.4371553221407
26.5256616485837
26.63844966021437
26.78294998838348
26.96053062038301
27.16564084708098
27.38646623724042
27.60703364944291
27.81056639349588
27.98357707416849
28.11973319051913
28.22228263663049
28.30415012652455
28.38563415421162
28.49042537991501
28.64101798982958
28.85450587179298
29.13944188449629
29.49406955140497
29.90599239597912
30.35329430961421
30.8070842533557
31.2351773429096
31.6061891990432
31.89307273922073
32.0753724878363
32.14006637010352
32.08135288538353
31.89988461475876
31.60184342017298
31.19801140017945
30.70271142870698
30.13239614834148
29.50386488150622
28.83233510427128
28.12958762245065
27.40221508498908
26.6499981650754
25.86478480250141
25.03063105534304
24.12589544107868
23.12742240460464
22.01627800293981
20.78396452898654
19.43769963116432
18.00336139638967
16.52517962417835
15.06193168560956
13.6799343358597
12.44355932428501
11.4046446476394
10.5929935104634
10.01054229036784
9.631117049781805
9.406138752302637
9.275002160137793
9.177753332446231
9.067221554038507
8.917941690315944
8.730018769178534
8.527191959436472
8.34935590026018
8.24074863754571
8.23617196330436
8.348720031668051
8.562701876265098
8.834153680030461
9.09904103668565
9.287121665069828
9.338156672846903
9.216706812441814
8.922094001441934
8.491229041532362
7.993487038852566
7.518197402984442
7.156685729379532
6.98237074130344
7.033690916382115
7.304534682727509
7.744877249861506
8.271368777450979
8.785137703356725
9.192716689273867
9.425576883121355
9.454178188262008
9.293719114809743
9.000465200720324
8.659166481902524
8.36373414450205
8.195195585302118
8.202335622616737
8.390185676597937
8.719267920885681
9.115337075671874
9.486834494150077
9.745943354005055
9.828717719248665
9.710124294953802
9.41101273479408
8.995629791859308
8.559878561304693
8.21221222374169
8.05099309052964
8.14366697027121
8.513014627438626
9.133662191099763
9.939015467435285
10.83632942765395
11.72630935095283
12.52317877370169
13.17135454000365
13.65574314959967
14.00391859863525
14.27972282247874
14.56926809500914
14.96208795933806
15.53174754613701
16.32055291471794
17.33164897256142
18.52951753695026
19.84788374800114
21.20283526488164
22.50837834543576
23.69155455124299
24.70461987772958
25.53243142141199
26.19385688594803
26.73685129582886
27.22807253643838
27.73928593030892
28.3336159710862
29.05445031120912
29.91875936737041
30.91545235975564
32.00852301443742
33.14410128054312
34.26007471285455
35.29672311146458
36.20674857787858
36.96305622576051
37.56275249392046
38.02636021469722
38.39227416071483
38.70764292429952
39.017648583429
39.35533760317238
39.73387804744917
40.14259946723418
40.54751609140965
40.89630594986581
41.12701310311343
41.17911015019511
41.00499913332124
40.57963143422582
39.90598160532833
39.0148958680705
37.95923979617189
36.80372903501493
35.61275655839449
34.43874498757579
33.31323360826079
32.24228214002846
31.20695144614204
30.16870362529691
29.07868275800992
27.88907036431237
26.56412248447761
25.08833842187842
23.4698252045766
21.73827499236568
19.93847568188412
18.1212558854914
16.33402695146632
14.61286914851106
12.97765697454978
11.43107107832775
9.961540836988036
8.54936301918023
7.174565426903909
5.824566481632685
4.499527089797317
3.213853230363023
1.993576689132122
0.8706809487368385
-0.1238668410357133
-0.9666710109728212
-1.646719613281687
-2.167511394704064
-2.54600619679934
-2.808503314932314
-2.984177754262335
-3.097545673711099
-3.161571446489554
-3.173294781457183
-3.113388291062394
-2.94990599069734
-2.645210958233589
-2.164354403798856
-1.483150751246954
-0.5944872757015829
0.4882612325200001
1.731427965487953
3.08499927416954
4.489802952808577
5.886798610274374
7.226705413352007
8.477775302510338
9.629714736595021
10.69276245950337
11.69232720945411
12.66069077040837
13.62774163899349
14.61265430024846
15.61812754024431
16.62833828185458
17.61114580387922
18.52432929306027
19.3248109975327
19.97896555675357
20.47149443811696
20.81041815803793
21.02674875539917
21.16897155205924
21.2938446726504
21.45572937803247
21.69671405994445
22.03944784488593
22.48403156628185
23.0095927229997
23.58035710800578
24.15515106092723
24.69834584131033
25.1895359439603
25.62924226830134
26.03896319083695
26.45560435801876
26.92188984821343
27.47520342874776
28.13739844533994
28.90772508540284
29.76037050655418
30.64728450557828
31.50604092821253
32.27149587488356
32.88897525151442
33.32591869182664
33.57887737728922
33.67387247328232
33.66002483174011
33.59819141416217
33.54739166527325
33.55197980986767
33.63210694544372
33.77928531507179
33.95794452439765
34.11284272063411
34.18110532553095
34.10652931804404
33.85286431090005
33.41263844126949
32.80916138639142
32.09130995774449
31.32268163956876
30.56791029699248
29.87922226345161
29.28595178131265
28.78900218486079
28.36127543075884
27.95402453291574
27.50798494600224
26.9670191165729
26.29108400814632
25.46517828283743
24.50198180514491
23.43784275161451
22.32364956573091
21.21319103474968
20.1517968662077
19.16768325250856
18.26771080820572
17.43829275950217
16.65114472029323
15.87258665415386
15.07420835136128
14.24206848964624
13.38172008659529
12.51757655803789
11.68699707764226
10.93098393116493
10.28396004725177
9.764940693059502
9.371954127396153
9.080903024007114
8.849173803218433
8.623362261976443
8.349659699180629
7.984736078829318
7.50450020470083
6.908369567583573
6.217929731846602
5.470622564952597
4.710421179565473
3.977843275187532
3.301414961061089
2.69223905336021
2.142693170179158
1.629457209514883
1.120234142445177
0.5828253848187483
-0.005400883661565076
-0.6500330035272285
-1.336267469307403
-2.030643618076328
-2.687206501077708
-3.256305494650157
-3.693950880685806
-3.969879028565547
-4.07283740789764
-4.012096422684765
-3.814887248420062
-3.520199988395242
-3.170046623888062
-2.799963957454823
-2.431059966028596
-2.065787605403435
-1.688573835819033
-1.270903368781859
-0.779301114531121
-0.1842631303632226
0.5317050007052926
1.368511069465502
2.306518313316083
3.3087449625934
4.327017697041422
5.311100438059083
6.219002282337454
7.025998340605613
7.729892843271798
8.35104503494801
8.927276259097649
9.505149805974215
10.12975955777269
10.83518799460054
11.63750335257995
12.53166231786356
13.49296964688524
14.48291752078705
15.45837061443502
16.38217849952505
17.23258112112675
18.00874611236613
18.7307943753236
19.43437563670661
20.1613939197714
20.9492636427323
21.82113388240992
22.77915469241503
23.80223145185177
24.84886989427702
25.86477034759399
26.79387974114438
27.59067701204291
28.23076321231308
28.71686665382446
29.07850494984077
29.36540940020563
29.63652441402821
29.9472865654955
30.33795074896108
30.82529027269632
31.39927567435123
32.02542401662748
32.65251062945168
33.2243163214166
33.69306133161329
34.03137715571667
34.23962687058133
34.34649445396561
34.4027101036063
34.46966850153687
34.60578807574053
34.85364092924639
35.23045371155984
35.72380633384881
36.29338488134537
36.87860023299813
37.41080867631837
37.82775230798308
38.08690891804126
38.17429285093007
38.10632865515633
37.92443874632683
37.68401909493037
37.4407082309293
37.23711851778037
37.09278853924515
36.99931922502269
36.92163606311027
36.80521255383741
36.58796394174246
36.21438800518803
35.64863692336649
34.88312868982553
33.94045420018821
32.86835283733809
31.72945350204875
30.5885423774101
29.50025864945451
28.49968847948642
27.59759080158403
26.78105391866306
26.01936403824049
25.27385143610042
24.50949632808168
23.70534908243297
22.86086947884642
21.99645165831077
21.14826012069177
20.35911299782249
19.66788645104134
19.0998774350262
18.66012978693054
18.33107131230851
18.07497625404405
17.84088880943312
17.57480337236771
17.23106664251602
16.78230972257117
16.2252447959898
15.5807367472369
14.88831136850879
14.19677614777928
13.5533093140034
12.99333928962402
12.53316504737467
12.16669332237545
11.86690287538228
11.59180966241422
11.29389159280417
10.93110364928053
10.47691610478481
9.926736540332207
9.299014215371733
8.630954300440834
7.970238485416825
7.364874685545517
6.853366422683941
6.457136558516788
6.176669554772168
5.992135806674819
5.868439025704524
5.763796196728175
5.640112118954002
5.472688154128742
5.256680807084277
5.008572471505726
4.762445972879191
4.562277239145191
4.452224538541506
4.467049233031396
4.624629547749888
4.922100723291813
5.336456303534499
5.829608759286072
6.357066245880642
6.878517933213486
7.367846923188504
7.81987630774323
8.251917972275779
8.699726221701082
9.209008161926477
9.824595329813107
10.57967834939762
11.48737126573031
12.53639320524252
13.69185159537054
14.90114903780924
16.10407208187032
17.24514467747493
18.28545664692282
19.21089470172375
20.0344793830882
20.79219272431418
21.53349796985825
22.30896223568406
23.15780701355218
24.09804701249039
25.12130749558995
26.19349445238889
27.26137594483861
28.26398125838414
29.14658742218919
29.87410643069359
30.44041006202069
30.87100319208869
31.21832506657542
31.55100410675341
31.93977971055645
32.44327475922199
33.0965794055137
33.90492233689157
34.84367672060802
35.86474417415771
36.90814128417632
37.91641996460056
38.84855946568661
39.68969661846466
40.45400008450832
41.17997772840395
41.91967155418774
42.72464742919055
43.63213428880686
44.65435198658421
45.77327851296991
46.94200891367852
48.09261306122101
49.14913552142718
50.04314026713405
50.72820256741485
51.18955375388946
51.44618037708362
51.54484559307433
51.54778938312065
51.51732894191329
51.50094503144025
51.52000147952352
51.56434362261414
51.59384424128699
51.54667139374846
51.35276142678531
50.94974734297961
50.29765735695928
49.38862725566727
48.24910695364059
46.93426568507841
45.51648163345556
44.07104353519821
42.66237089613831
41.33355730686458
40.10115827093937
38.9560250015697
37.86980702865272
36.80564425702193
35.73056546551498
34.62639841194125
33.49610300601338
32.36373748701837
31.26833264817805
30.25372702630499
29.35718378909868
28.599495352245
27.9787341026866
27.46899840477294
27.02447607424012
26.5881015614849
26.10318010813377
25.52557727955099
24.83356589195295
24.03267005138108
23.15416883709455
22.2478510853107
21.37113817258991
20.57722942741082
19.90472018468086
19.37064455961329
18.96819463780691
18.66944758793762
18.43248310637473
18.21146601349839
17.96757723046768
17.67820696389834
17.34201435336116
16.97859771374585
16.62318531088353
16.31806722992338
16.10295904212872
16.00634831343078
16.03951651438212
16.19441183390786
16.44581119732113
16.75737632361691
17.09043017937282
17.41356820781004
17.71070445073007
17.98526476928778
18.25927097718514
18.56763874376491
18.94932076991347
19.43747666128146
20.05079497655956
20.78775748451733
21.62508624711067
22.52082557677272
23.42162515554264
24.27295704059186
25.03022675746836
25.66816635190422
26.18597353213162
26.60670851561089
26.9711356337683
27.32767637170419
27.72086952056188
28.18078432368307
28.71551195092655
29.30827453377459
29.91984063395594
30.49595527780091
30.9785274447982
31.3183965655677
31.48678626658954
31.48252078618192
31.33308820706775
31.0893871608907
30.81566471870236
30.57710453275487
30.42772574336016
30.40098485285875
30.50488074439738
30.72248843498492
31.01783459803436
31.34601447238415
31.66544621652487
31.9493246121486
32.1931744748337
32.41633493244701
32.65698476900156
32.96212510239891
33.37506380908564
33.92327633232236
34.60928764704148
35.40658705825285
36.26161904954649
37.10176150897856
37.84806933167764
38.43044937078763
38.80200088489691
38.94901340306826
38.89401773875826
38.69115041213158
38.41510980089593
38.14636606815947
37.9558028040083
37.89182024214919
37.97231611763592
38.18298207602695
38.48218293364557
38.8114801672449
39.10964430556785
39.3269379524539
39.43606948183209
39.43700904832745
39.35467260142287
39.23051162074679
39.11047380739907
39.03235101020165
39.01539665434984
39.05447818487092
39.12003624583015
39.16393653595701
39.13010926962559
38.96772958422127
38.64377453515404
38.15160819370543
37.51323204568659
36.77473895293723
35.9964320301991
35.24023693247779
34.55733553473109
33.97866716490137
33.5102428372688
33.13416070353779
32.81501758980362
32.51031138651069
32.18246971815417
31.80946944743163
31.39110950113881
30.94922298605045
30.52205313257364
30.1546702136963
29.88802093932729
29.74914569852262
29.74468370719697
29.85907844776875
30.05787369624663
30.29539890314221
30.52522680327951
30.71105087451247
30.83518746554169
30.90222361832087
30.93671536875284
30.97578338946847
31.05889638516756
31.21751533248658
31.46692895878587
31.80202978978432
32.19799602184008
32.61581437354143
33.01156055771173
33.34757499181257
33.60309184749205
33.78158538559141
33.91254340374235
34.04684528236426
34.246879488793
34.57394510015111
35.07582622227313
35.77705680468856
36.67376976217999
37.73417230194305
38.90458792656643
40.11993006247383
41.31663791262174
42.44545554207111
43.48106309679768
44.42594945806655
45.30735460528417
46.16811599576651
47.05381861112736
47.9992011153626
49.01655175909669
50.08828075892723
51.16507645381747
52.17001318694597
53.0078450798029
53.57766441320279
53.78616264634371
53.55812597965627
52.8410779282209
51.60247044155657
49.82000501565472
47.46748160313651
44.49937844646615
40.83731532306055
36.36107696931408
30.90614328600457
24.26872893036917
16.21835920566368
6.51719428960107
-5.055314060302224
-18.67438716670006
-34.44109395114356
-52.35614940562721
-72.300423385166
-94.02620591962028
-117.1624138737722
-141.2355754196243
-165.7068063613807
-190.0230767381484
-213.6788798643354
-236.2819962017641
-257.6141908199369
-277.6744088850057
-296.6901245772143
-315.085756051456
-333.4073810092995
-352.21628055667
-371.9729460400576
-392.9348904357921
-415.0880528832815
-438.1257475097023
-461.4819851374664
-484.4177753474138
-506.1501609001623
-526.0042282995229
-543.5582555848596
-558.7451731779826
-571.877385799674
-583.5808379720493
-594.6508584082648
-605.8633185693313
-617.7825158374014
-630.6042936332907
-644.0646067845403
-657.4325998692531
-669.5939549442836
-679.2156590426233
-684.9677859382274
-685.7618692937942
-680.9539425962394
-670.462857471764
-654.7757801594277
-634.8446765815887
-611.9046813456315
-587.2578851934605
-562.0656069024603
-537.1846589772447
-513.0722381007225
-489.7712459388931
-466.9742428894252
-444.1504918804147
-420.7073720109094
-396.148687192043
-370.1940702011979
-342.8373303882234
-314.340949525625
-285.179875544204
-255.9553803098538
-227.3000733684022
-199.7916449393993
-173.8878823417685
-149.8899557277238
-127.9355219715174
-108.0180648294746
-90.02424383986714
-73.77812061919258
-59.08167937913611
-45.7449543913192
-33.60398674508021
-22.52832391451404
-12.4211160801711
-3.214774718386867
5.135460383889844
12.65844674916681
19.37367918936233
25.29710048894327
30.44613879750124
34.84402262321957
38.52325425243635
41.52772478167069
43.91270172879312
45.74221230073933
47.08412206964891
48.00399444334776
48.55918794541498
48.79453953269538
48.74057696047083
48.41468264062807
47.82507592135394
46.97690491656706
45.87915291368033
44.55060684857803
43.02315730046124
41.34146724994977
39.55928161275845
37.73365291746285
35.91870214256205
34.16036096882487
32.49316253842114
30.93966756844175
29.51254163235883
28.21872700892876
27.06465101154388
26.06097988929305
25.22521777322321
24.58086157983167
24.15300731296429
23.96168595283672
24.01492330365102
24.30333490528175
24.7974756031753
25.44860891054497
26.19304094385841
26.95957478266834
27.67905918025626
28.29450675482257
28.76983456486512
29.09512764473214
29.28688595886122
29.38310138086208
29.43456512731033
29.4946374722381
29.60960956494706
29.81124571313291
30.1125642799221
30.50742338405704
30.9739114173172
31.48091189383622
31.99656066047634
32.49668147931236
32.97093886432363
33.42486878055973
33.8772685442669
34.35400227661472
34.88021315580199
35.4729614389972
36.13584386624908
36.85662509657605
37.60839839433486
38.3542202055086
39.05453606649576
39.67605513965285
40.20007816015898
40.6279261715337
40.98156659025852
41.29894005319149
41.6252109906661
42.00226039496417
42.45886535078713
43.00352528996199
43.62125024146359
44.27496593471027
44.91148141324279
45.47119793302927
45.89993193839046
46.16045873345158
46.24098485950957
46.15824056845587
45.95437744064596
45.68870017298487
45.42651437372208
45.22766162066528
45.13694568816836
45.17804822898094
45.35185305984606
45.63936158941714
46.00860694712212
46.42416492746709
46.85706407649509
47.29243215919787
47.73260706450984
48.19483448189376
48.70444475337978
49.2856387256106
49.95233536331467
50.70119766670962
51.50834619081188
52.33057001896071
53.11108332285483
53.78906278773609
54.31134389449048
54.64383113214507
54.7797333899038
54.74219287058456
54.58036647532503
54.35992140046409
54.15031775030319
54.0117374136523
53.98425318119837
54.08117975846958
54.28774267586718
54.56533301256589
54.86070911595669
55.11854250965818
55.29473908968534
55.36735327716146
55.34222011568752
55.25185214328896
55.14810957901866
55.09074339278135
55.13462340965002
55.31837879870098
55.65661887660381
56.13711999425468
56.7234922949519
57.36292467131305
57.99761258083964
58.5774312246094
59.07069052758286
59.470011649309
59.79173536551278
60.06925177303183
60.34229544544966
60.64501858521882
60.99557046892535
61.38930528743011
61.79692214488681
62.16798245617179
62.43937567650678
62.54733764152757
62.44058772749248
62.09142187828153
61.50179559666181
60.70278314294171
59.74775355587501
58.70125178102744
57.62635817087745
56.57323099719833
55.57093528321492
54.62386574271665
53.71327324583445
52.80360462055886
51.85246566075554
50.82205145672228
49.68924840940236
48.45186315950912
47.12968820879914
45.76074927573635
44.39428737540615
43.08247503654253
41.87269986967924
40.80176298275557
39.8927834199418
39.15510397425359
38.58701796874253
38.18054483621788
37.92679222677726
37.82003348114493
37.85900976896763
38.04513732616512
38.37856204547699
38.85363580072811
39.45529081274199
40.15729559075898
40.92280923274311
41.70720287706343
42.4628422674428
43.14528450430321
43.71993747595747
44.16770834315574
44.48795183275619
44.69759419704931
44.8265682299181
44.91091012638156
44.98537470919921
45.07719723437161
45.20202400676634
45.36237817923499
45.54856102426447
45.74168468082657
45.91838232791488
46.05638419781583
46.13964936609662
46.16156089868872
46.12525012182352
46.04123987861499
45.92355823141876
45.78574748627274
45.63787277928952
45.48505267463598
45.32744967355509
45.1613230325948
44.98076226168178
44.77982890352323
44.55470629944686
44.3051534688239
44.03452501078837
43.74817328719297
43.45090593815589
43.14465971140801
42.82737546947995
42.49349730315421
42.13588853187503
41.7484274794385
41.32836421035135
40.87780452577798
40.40411209216822
39.91917641969577
39.43744457054919
38.9727846733797
38.53482667610549
38.1259944334729
37.74040927181733
37.36518742271245
36.98385820138959
36.58098705572017
36.14665168959663
35.67941949881201
35.18704044362201
34.68480446288189
34.19193689399097
33.72658472067955
33.30028511824352
32.91335029368152
32.55280976724692
32.19393841278557
31.80524616067412
31.35580415944242
30.82317408416324
30.1999084457057
29.49679297518583
28.74185287363407
27.97520789089016
27.2406175840287
26.57508501828775
25.9985365843468
25.50621142118609
25.06625819375394
24.62374936850531
24.11047988981414
23.45847364514648
22.61435359947524
21.55146315691151
20.27699041318538
18.83246127483042
17.28735312560488
15.72671512138027
14.23469496288145
12.87707932196146
11.68697470595036
10.65760873317155
9.744447788605635
8.87619201470116
7.972021868406774
6.961272689896168
5.801327618192483
4.489913915229313
3.069202437364802
1.620715074103991
0.2515587374643964
-0.9259738894555724
-1.817645186027321
-2.368108511750767
-2.574063930577696
-2.48640918249986
-2.201159766019817
-1.841643442534094
-1.536031099314818
-1.394774830633351
-1.492210340855902
-1.855536889256945
-2.462954758095154
-3.251278150502388
-4.131753327679985
-5.010918772741466
-5.81165265908062
-6.48915197100655
-7.038088888892447
-7.489934131783011
-7.902025354125481
-8.34152013752058
-8.867950545243618
-9.51797239406488
-10.2952152852992
-11.16710330978284
-12.06935969928973
-12.91756352192054
-13.62346299201619
-14.11218312133574
-14.33594860572177
-14.28107245709269
-13.96719814807731
-13.43988853930749
-12.75885942891518
-11.98454724161759
-11.16561007547615
-10.32953725780778
-9.477903863989848
-8.587089506663178
-7.614435678653093
-6.508697132025929
-5.222440110804035
-3.723402458908107
-2.00228304672079
-0.07571732585752594
2.01549167515482
4.21201643585194
6.444305768025903
8.64220119205131
10.74451286793486
12.70723879269528
14.50916106397292
16.15371780031504
17.66656160016742
19.08913533190748
20.46957928557143
21.8528309343602
23.27172980930207
24.7405443346904
26.25186790929575
27.77735717174073
29.27228260809304
30.68332893535022
31.95853014694108
33.05767854721194
33.96113921044333
34.67500873751862
35.23121660895756
35.68236705176319
36.09239413776093
36.52500008542094
37.03219767054398
37.64514063456453
38.3689349306033
39.18241110442969
40.04300951063538
40.89605327950174
41.68679283460865
42.37279501671577
42.93381912153171
43.37666817551773
43.73371943339166
44.05550866211706
44.39922699346472
44.81583574330081
45.33861788381163
45.97552310117889
46.70684543009399
47.48877223310111
48.26227854948939
48.965765406949
49.54883433137959
49.98395404775556
50.27297390931486
50.44666931787604
50.55739424765092
50.66673131317607
50.83114946104381
51.08890449413941
51.45093217957957
51.89757956695667
52.38190572928532
52.83908267662245
53.20021129883852
53.40773567255489
53.42890120415603
53.26384015936908
52.94612275800115
52.53563649302384
52.10567134818451
51.72738079573875
51.45510437571898
51.31557171040321
51.30308255314931
51.38159989595121
51.49343847130253
51.57295151471316
51.56239937640002
51.42632259639347
51.16075106393927
50.79477076492873
50.38404487718917
49.99804092790404
49.70415912318709
49.55238114636226
49.56364614861675
49.72423721310847
49.98727588272813
50.2811463235407
50.52337662446888
50.63722579540044
50.56723097308906
50.28983380164038
49.81634637420235
49.18767370827898
48.46249021863639
47.70207901388707
46.95546779201944
46.24806187279208
45.57602605274042
44.90744724436315
44.19000881742601
43.36362199751017
42.37522927949732
41.19210473123803
39.8100451744651
38.25427160653086
36.57316893957397
34.82704439428869
33.07505419510886
31.36338429680205
29.71713899973815
28.13746382167975
26.60432546981535
25.08426945799763
23.54147609293627
21.94952617573439
20.3007057113903
18.61002933684849
16.91277269975601
15.25651851794992
13.6902902819882
12.25365967119149
10.96820992471459
9.833026365470687
8.82507084316533
7.904346649114363
7.022863583101268
6.135687737972477
5.211721966107477
4.241467172417176
3.239435082379555
2.24042627557799
1.290892063170916
0.4378968330644698
-0.2816797991259462
-0.8495885614603925
-1.270788224109836
-1.573297046853472
-1.803296505394308
-2.016320653299338
-2.266089266419853
-2.593196911490769
-3.016315096553493
-3.528265439874341
-4.097973032553025
-4.67748909934651
-5.212024371138371
-5.650693684187011
-5.955998700656752
-6.110462133385417
-6.119270773062381
-6.008443993258199
-5.81883214622189
-5.597021527052512
-5.384980520259391
-5.210877657529552
-5.083447526413859
-4.991254901143591
-4.906646695459503
-4.792967242474299
-4.613187688068498
-4.338196308491266
-3.953213509706829
-3.46108794961312
-2.881726991077313
-2.24759788434865
-1.596022370001472
-0.9598588934868088
-0.3589286077223144
0.2053340075581881
0.7504148322870833
1.308395080542674
1.918078696892126
2.615514495381227
3.424893458000211
4.351596922971264
5.378833491858107
6.46876472006453
7.568282025980804
8.618693824484408
9.567526950885828
10.37969227382528
11.04501826978309
11.58006115178011
12.02383346951904
12.42876318933455
12.84914104385468
13.32952817047845
13.89539694989518
14.5478376546052
15.26348513006504
15.99993561483587
16.70587356949655
17.33393097147796
17.85322933095595
18.25824474607351
18.57155982849437
18.83991849596763
19.12486667996753
19.49040437217682
19.990397050385
20.65828220509317
21.501066176676
22.49881405829547
23.60988289790433
24.78107819187972
25.96070479933694
27.11137662798303
28.219087508009
29.29594535305907
30.37588909761085
31.50473841993477
32.7272423910804
34.07418320334002
35.55231390560235
37.13924500123184
38.78448805791732
40.41680774281853
41.95685040845299
43.33270134373125
44.49484549282908
45.42663014140005
46.14729656745446
46.70675385988197
47.17358786842989
47.61938468428287
48.10295500711677
48.65770925601478
49.28462033984701
49.95214911711879
50.60330896816414
51.16872886422754
51.58314568010669
51.80150953755687
51.81049445111239
51.63222355813581
51.31924449989131
50.9422768447078
50.57398867909536
50.27264110043572
50.06908533474579
49.95968725337919
49.90656152858374
49.84520125266673
49.69823891001059
49.39265558604454
48.87653078139242
48.1310669779615
47.17469091005796
46.05830806361988
44.85327691404939
43.6353582955534
42.4684354228873
41.39144587154
40.41106098665529
39.50142907686453
38.6109818975899
37.67499487073923
36.63127909271342
35.43530081522459
34.07081339727851
32.55325171394245
30.92535109796338
29.24665316566368
27.57985480438711
25.97723776611033
24.47003944016156
23.0628305678322
21.73388764815027
20.4414077842542
19.13433449118138
17.76548974287098
16.30382194860664
14.74250295090419
13.10079998512073
11.419680972674
9.75288648934588
8.155998674483666
6.676021234800895
5.343591438189079
4.169277676311077
3.144501435102596
2.246704295715023
1.447600286238205
0.7225937228252273
0.05881132448124365
-0.5407249939835996
-1.058068921055668
-1.465948394265632
-1.736130717583365
-1.848330362301003
-1.79768826653111
-1.599248085912398
-1.288401557305981
-0.9170535527720516
-0.5460645350632937
-0.2352163853668306
-0.03261630058653084
0.03400345345197692
-0.03824304479449619
-0.2283319613778256
-0.4971570729170416
-0.796477495674273
-1.07887528976445
-1.306831677147593
-1.459353108579175
-1.534989461062651
-1.55069994214464
-1.536735222721243
-1.52842206896717
-1.556521146578431
-1.638525372735184
-1.773320912610912
-1.940667065411406
-2.105381936258886
-2.224853280440211
-2.258008603955193
-2.17392656481828
-1.958470041617776
-1.617640487392251
-1.176888345575789
-0.6762903816395781
-0.1622539903492692
0.3227093330317978
0.7497488733736785
1.110340140281546
1.418012286255254
1.704831754133847
2.01376009738894
2.388753718468994
2.864638854288091
3.458709062390686
4.16573805151221
4.957577956724708
5.78773142061099
6.600327647573414
7.341837970074981
7.972862080242718
8.476964941499066
8.864283696971707
9.169195580151056
9.442939056535536
9.743078551165402
10.12205121562182
10.61700569681005
11.24287967392505
11.99013346618204
12.82777093158766
13.71128058483927
14.59393592386208
15.43874011062581
16.22778887055874
16.96646214241023
17.68145781835327
18.41346290668666
19.2064889560554
20.09638944869164
21.10103756281931
22.21426218019689
23.40497042543838
24.62198536505604
25.80404147584884
26.89310562436186
27.84796492051382
28.65447819588713
29.32957928786577
29.91790861387776
30.48202680311871
31.08868501601483
31.79426715948171
32.63244498285317
33.606539037198
34.6881925838135
35.82286136118467
36.94136230881512
37.97530304801968
38.87287732869721
39.61092658650409
40.19993457567009
40.68062429313085
41.11320262725484
41.5620785603706
42.07964337466877
42.6926053403359
43.39369983189697
44.14052598142718
44.86196032936756
45.47118171489137
45.88283651010997
46.03053514768341
45.8803668077198
45.43703224948052
44.74134574396915
43.86029142996303
42.87253151825972
41.85289376538696
40.85914999866603
39.92364426453476
39.0512285336408
38.22371352355191
37.4097677754631
36.57790499616984
35.70912164579669
34.80552751533045
33.89245128782159
33.01364593651572
32.22128841028425
31.56360946426784
31.07317052753174
30.75840331909053
30.60024103842681
30.55459691873007
30.56031677872935
30.55118176425174
30.46950738000515
30.27806373442765
29.96707051333391
29.5543571847414
29.07894984120912
28.59018953823053
28.13525274146133
27.74783021506531
27.44022450808467
27.2003878447248
26.99444950629126
26.77426712572606
26.48860214639496
26.09559590814535
25.57349170724208
24.92663521521583
24.18510663007989
23.39838467299702
22.62509449223778
21.92149909904248
21.33121614199448
20.87815360994585
20.56395613626875
20.37034596290528
20.26584077782355
20.21554145263549
20.19188798249183
20.18362388925786
20.20029288696859
20.27082193949517
20.43663985084253
20.74130333770221
21.21917821324269
21.88560181344572
22.73054811964377
23.71717792764021
24.78576142781252
25.86250563460827
26.87192626288529
27.75049206459904
28.45850911147904
28.98721732632776
29.3592629993332
29.62265087756996
29.83996338603218
30.07543214089246
30.38249371739448
30.79413879002271
31.31779020067935
31.93562991122565
32.61036825202284
33.29547798995151
33.94783380642704
34.53970969284227
35.06683708326847
35.55020542868712
36.03117867418715
36.56137243648454
37.18984774003374
37.95045510301509
38.85191968320613
39.87271158104776
40.96195605676738
42.04666506816336
43.04442665943785
43.87934753662994
44.49778308875771
44.87991420013628
45.04411363622483
45.04306369908348
44.95281178380892
44.85748539785901
44.83295940478367
44.93263629117068
45.17797150792256
45.55556530304418
46.02157883993433
46.51291187616329
46.96301297325653
47.31870196391292
47.55371093599515
47.67541387580178
47.72324159418559
47.75963807108571
47.8561391462997
48.07787971381195
48.46977783630279
49.04712046987991
49.7924410882992
50.65950451983743
51.58389958347826
52.49816207662602
53.34780541809155
54.10389110254931
54.76851124525277
55.37166753769897
55.96057724442468
56.58435198152677
57.27780446619476
58.04802253189459
58.8666574631559
59.66981742916516
60.3661646018255
60.8523232809901
61.03299935882862
60.8415927441693
60.25635312779344
59.30800058518402
58.07706578332736
56.68196968708948
55.26091448207551
53.95152256450963
52.87205462854481
52.10732010765201
51.70129381195737
51.65715157744696
51.94400774865187
52.5080592598753
53.28442478345804
54.20553425657813
55.20312365517993
56.20334170110227
57.11691392035015
57.82769242549986
58.18316129685108
57.99000725265655
57.01696272881268
55.00588429887898
51.69064436485588
46.82200876413362
40.19522162636406
31.67580994406467
21.21889856255543
8.87856460167939
-5.194053758541022
-20.76320657694897
-37.52980920230632
-55.15946445521035
-73.31493143825229
-91.69049105413798
-110.0453994203409
-128.2331956197423
-146.2228171577038
-164.106368590538
-182.08791746355
-200.4496808909678
-219.4973402524788
-239.4929490128374
-260.588397583193
-282.7730367598323
-305.8467994820292
-329.4263836167193
-352.9873425690227
-375.9395241209605
-397.7274356141913
-417.9406035244548
-436.4118650118248
-453.2766468867163
-468.9697650959422
-484.1513542814003
-499.574425143998
-515.9225443729872
-533.6516148996286
-552.8668222256515
-573.2587007471201
-594.1128946314427
-614.3970456984587
-632.915912318569
-648.5122973163686
-660.2768478769497
-667.7189579425878
-670.8533629767757
-670.1777355072486
-666.5479032847371
-660.9838048959311
-654.4513885982515
-647.6647218216958
-640.9444663418852
-634.1571526758826
-626.7456666031013
-617.8461959678743
-606.4711066470929
-591.7215339846434
-572.9826220788492
-550.0563405178206
-523.2046748112359
-493.1022609656115
-460.7197867873937
-427.17028264059
-393.5507422043202
-360.8060697265177
-329.6344396945871
-300.4441827907281
-273.3631963410387
-248.292992700977
-224.991250975421
-203.161421624905
-182.5287924646387
-162.8897793076956
-144.1312663884804
-126.224909529632
-109.2052187893404
-93.14057022494576
-78.10470280346408
-64.15391956285374
-51.31276459719492
-39.56878949975859
-28.87526035865363
-19.15928967127821
-10.33223611995945
-2.299667571480368
5.030564253584746
11.74237754210385
17.90731136000058
23.58186373770212
28.80622494699676
33.60447038151248
37.98636155694456
41.95091624012537
45.49176265185984
48.60394624017845
51.2913523909029
53.573352159338
55.48894247762481
57.09690486614848
58.47144633510803
59.69404799064112
60.84325839531198
61.98457385793201
63.16239845961922
64.39563647227416
65.67789209702941
66.98251609627523
68.27180192358419
69.50854670545691
70.66721829787909
71.7416263146631
72.7467298598994
73.71391734793573
74.68105539863507
75.68000664543156
76.7247664510742
77.8030178897793
78.87311848239963
79.86753668028587
80.70261038791058
81.293219952978
81.56963424624735
81.492732071464
81.06364313908801
80.32504704229282
79.3536386616694
78.24566771366705
77.09904439906427
75.99592385008154
74.98918534889897
74.09521773283042
73.29418496839513
72.53761447672694
71.7617684886906
70.90388277447245
69.91734899029767
68.78196235777028
67.50683889413037
66.1259789094875
64.68854326407839
63.24690838430625
61.84552082791146
60.5129388961959
59.25854287093756
58.07436750985038
56.94148516757119
55.83938049532596
54.75581576985785
53.69411132705797
52.67520544688871
51.73357447298
50.90833094964005
50.23231072847636
49.72214414929991
49.37163562240011
49.14987572629736
49.00456903368672
48.87010078153823
48.6790085838849
48.37481393427589
47.92355433251925
47.32108450737997
46.59386805473985
45.79277855337799
44.9816119018551
44.22337241984802
43.5674656154379
43.04022578289558
42.64033207975256
42.33975054376378
42.08987271820779
41.83164178758121
41.50773348464519
41.07425370918015
40.50915497323495
39.81519082103458
39.01687464300336
38.15283319570074
37.26606658109453
36.39460938415533
35.56445703002247
34.78593015079134
34.05399565144628
33.35237458547451
32.6605801489592
31.96238810636639
31.25367855512711
30.54736813147284
29.8737390259158
29.27592392310952
28.80190423129939
28.49523040239196
28.3865845470116
28.48775611877436
28.78903281514446
29.26048053763203
29.85701328178529
30.52653021039647
31.21973948774273
31.89964100394949
32.54829526553821
33.16895218357777
33.78295327910071
34.42241469448525
35.12071297875265
35.90297024678082
36.77839065362006
37.73580440668712
38.74325039832594
39.75184473926857
40.70350053812805
41.54126144909633
42.22016393152705
42.71600990082651
43.02974200830689
43.18638921856544
43.22918276745792
43.21061518491136
43.18259956489857
43.1876841070059
43.25282038769465
43.386670213951
43.58089730490265
43.81526095486015
44.06553905867176
44.31242604343682
44.54894748294193
44.78413887285328
45.0418875581756
45.35538412602196
45.75881695690067
46.2784221652055
46.92487539026689
47.68855595526114
48.53865872990367
49.42655456234933
50.29314079649305
51.07909554445179
51.73603264542182
52.23592805377412
52.57636555310506
52.78026004117444
52.89026897737579
52.959414860098
53.04013166119952
53.17398973945159
53.38395276327186
53.6704607029473
54.01205101781991
54.37054373382578
54.6999157082902
54.95697286970877
55.11120169817903
55.15125227002046
55.08650414940296
54.94364022250456
54.75946206496356
54.57192775734306
54.41149398961978
54.29446939568778
54.219544412499
54.16813749596449
54.10861351777093
54.00364148054548
53.81903346304644
53.53174981414288
53.13487035273933
52.63830960617945
52.06540769163053
51.44663162681086
50.81214256389872
50.18491250626093
49.575642389184
48.98027744857107
48.38056602502125
47.74768618906057
47.04829049857282
46.25153259940308
45.33519878169369
44.28939663382827
43.11726433683656
41.83323892231376
40.45999724205922
39.02517401687427
37.55858024930168
36.09016562048386
34.6486660375835
33.26084476638807
31.95124820647414
30.74219122200304
29.65334256719648
28.70022774844803
27.89154283852102
27.22612401153162
26.69099750665823
26.26167545687806
25.90502162906343
25.58413184096427
25.26408835635671
24.91729569698508
24.52736989874582
24.09096214315786
23.61715095834683
23.12419651675399
22.63389448204452
22.16466124673733
21.72535518815939
21.31191553646378
20.90797017385519
20.48920635371235
20.03017871160578
19.51161565487017
18.92626403872203
18.28185095638256
17.60050640856156
16.91461257513582
16.2595793978307
15.66482233829616
15.1451939847212
14.69560644771666
14.29088847876181
13.89125901437955
13.45210092959399
12.93562239965639
12.32155920457622
11.61431590352481
10.84485464174335
10.06682223960493
9.347414488338215
8.754372176196382
8.341579451943101
8.13674850308819
8.13474575182424
8.298675513340719
8.568499616092089
8.874967419651915
9.155545823557057
9.368735475809483
9.503580440093945
9.582331788143751
9.65569600136589
9.79141467338441
10.05815145571214
10.50802330750344
11.16214774019498
12.00327825546735
12.97759906567132
14.00503432668627
14.99536954113021
15.86649219554533
16.56082490197277
17.0565086594476
17.37114178160828
17.5574200401713
17.69137164480793
17.85519538180391
18.11822890571747
18.52070552678849
19.06459549027621
19.71370016517076
20.4024242993686
21.05068476975951
21.58151290678141
21.9376518144653
22.09378555282844
22.0620777624701
21.89006665164635
21.65121963430869
21.42972777035773
21.30262998761892
21.32353990417868
21.51206483095247
21.85119738405216
22.29256356446944
22.76767596191443
23.20251946567436
23.53249228394071
23.71485354421941
23.73650496547544
23.61589817158804
23.39876715788406
23.14834740770297
22.93198705226677
22.80722369633214
22.81067032089362
22.95206717547744
23.21422622916795
23.55823089324058
23.93245292512466
24.28349831907365
24.56702520069823
24.75657329243748
24.84897021303752
24.86532012979132
24.84712705767446
24.84801323957491
24.92266759045594
25.11553182742283
25.45175945348102
25.93219666816298
26.53306466689763
27.21011854968894
27.90639698708837
28.56221128746538
29.12577015688668
29.56276121042358
29.86321205184005
30.04409241133274
30.146663283697
30.22868582708855
30.35297627005884
30.57478345663703
30.93060865297938
31.43050736920872
32.05508113120936
32.75756939213877
33.47069609718984
34.11721740860007
34.62252736662062
34.92721475117626
34.99715668197949
34.82883680938095
34.4484320768152
33.9047850814675
33.25803527171382
32.56664167552694
31.87554698100715
31.20766510116985
30.56012170925179
29.90584531198884
29.20021221234288
28.39158919353353
27.43384808518767
26.29828137574113
24.98209852484801
23.51127534179408
21.93704042504605
20.32708511586745
18.75380563889913
17.28218953064968
15.95965689096623
14.80963344535743
13.82992369130666
12.99606625004735
12.26895009759421
11.60516615324513
10.96786647778311
10.33551298301811
9.70627032137775
9.097064190209306
8.537927703357798
8.063402395105436
7.703141000939593
7.473735129220944
7.373455719159916
7.381059832537337
7.459055096776044
7.560966252161148
7.641337779334882
7.666443715303707
7.623166618892903
7.52370870614983
7.404888124155568
7.322286465036732
7.340730225722786
7.523165289908129
7.9200564735031
8.561238627030244
9.451700088905502
10.57208712220219
11.88389162039651
13.33841263563582
14.88766641985231
16.49465793315358
18.14030613157355
19.82514922904025
21.56546730828764
23.3849814101293
25.30428327368845
27.33048542432802
29.44941074654025
31.62213261210567
33.78691677090185
35.86667191769
37.78092753440571
39.46016606523345
40.8593159742649
41.96693056722844
42.80745773094979
43.43585309115858
43.92585740686185
44.35475463891908
44.78798091790347
45.26670171330299
45.80073930743687
46.36823728335668
46.92229308951083
47.40350061716616
47.75595671088165
47.94308334193375
47.95921195870253
47.83376616054768
47.62690778179425
47.41787012035119
47.28896459129713
47.30894967668186
47.51922126612609
47.92548954828543
48.49652721253452
49.1703534569606
49.86689069827083
50.50468706218084
51.01798644978711
51.36989768599199
51.55825073594124
51.61281414888699
51.58501778497973
51.53316853205656
51.50686505478552
51.53405432725286
51.61332946424131
51.71295075494886
51.77683895123833
51.73647705792734
51.52626345684541
51.09865705286118
50.43512119739511
49.54996089754166
48.48637145080832
47.30631782171073
46.07727558116271
44.8591585743929
43.69426367141951
42.60214570450623
41.58023002917868
40.60984325515271
39.66624743659152
38.73018189988364
37.79760760269954
36.88447204083117
36.02480680549873
35.26278422412584
34.64123578547603
34.18979342527275
33.91548703366005
33.79787679293205
33.78984441581773
33.82407698733432
33.82422045638542
33.71875833924951
33.45484479134126
33.00878318413629
32.39019913695711
31.63861189008407
30.81347018981346
29.98050782327805
29.19776080483532
28.50411932881418
27.91249071676507
27.40871425182831
26.95629003530996
26.50592193523719
26.00797061257982
25.42514518055838
24.74228674025427
23.97045430137126
23.14407656285892
22.31212674505325
21.52592582002519
20.82663063505535
20.23506382220036
19.74586329658666
19.32710354807211
18.92553681788228
18.47657989690724
17.91727836838184
17.19969119753163
16.30160914637216
15.23178709802023
14.02829014842108
12.75061092084661
11.46781622336823
10.2455210085749
9.134264482614299
8.161373140527884
7.327726504956188
6.609941416005329
5.967519565968634
5.353611921460612
4.727207282109856
4.063888374152656
3.362349805925593
2.645015656733195
1.952902308177237
1.336382080424902
0.844153908443415
0.5127239336815854
0.3584386119328973
0.3736485209607968
0.5278280432926126
0.7735585407768915
1.056366320727205
1.326492195431626
1.549886426979583
1.715577248635756
1.837474649991469
1.950344356844156
2.10125560747602
2.338657990343468
2.701436973129504
3.210150015711103
3.862225523581626
4.632160339349507
5.476804853410581
6.344849678254929
7.188637591292861
7.975547900817336
8.695943580269956
9.365497283134754
10.02139567505028
10.71362613053388
11.49358501494906
12.40255128566682
13.46241989367688
14.67061716781274
16.00032640487303
17.40615494116299
18.83431783087437
20.23531561833454
21.57610379141871
22.84843329618651
24.07089643790272
25.28405888496169
26.54003374079039
27.88913962561941
29.36668535089197
30.98270198096747
32.71682183426116
34.51955333623604
36.32003190268728
38.03907027466947
39.60503925970864
40.96899607520488
42.11512935608243
43.063559695718
43.86466778617865
44.58649930019458
45.2984342451884
46.05485606282873
46.88225798245237
47.77240570364244
48.68300609735728
49.54595969128133
50.28183350445963
50.81774140069144
51.10459784817483
51.12933486257467
50.9187273517575
50.53381198245709
50.05652569601377
49.57203744446916
49.15087622303295
48.83461957711973
48.6279653000536
48.49869365246894
48.38555225344778
48.21261952158937
47.90725870740996
47.41757502559539
46.72496141002989
45.84845200391264
44.83998885983276
43.77228371253172
42.72264500400091
41.75663290708752
40.91502652194595
40.20667160235498
39.60850639682474
39.07265673669741
38.53912465792397
37.95129648028345
37.27047385994356
36.48551117448287
35.61495147557321
34.70142620802965
33.80034224723389
32.96607275616686
32.23897763626818
31.63606661593596
31.14722738698006
30.73775734528816
30.35668170294759
29.94919431607904
29.47050773961076
28.89761724291715
28.23558587424652
27.51642797131138
26.79103347205176
26.11658618688158
25.54274565384854
25.09968424486224
24.79044744890058
24.5891950558215
24.44570158758323
24.29529523603658
24.07239652528712
23.72492500752538
23.22619583607318
22.58111521979804
21.82495537319604
21.0152528964134
20.21923122752705
19.49985790815145
18.90346426969626
18.45129582132781
18.13652918200791
17.92718337811472
17.77423080601495
17.62328227542987
17.42741001132192
17.15807492478429
16.81128108506963
16.407389528862
15.98500970630148
15.59098479867525
15.26909181435227
15.04994468395655
14.94415566066715
14.94012932639325
15.00690500481527
15.10145608491335
15.17900068634589
15.20413513288193
15.16006477537987
15.05336034215457
14.91285245576413
14.78305495234164
14.71394777625884
14.74953096175229
14.91749537433403
15.22202882768152
15.64124303877907
16.12989207189641
16.62708080525815
17.06770771739708
17.39547861858559
17.5746144034039
17.59734076169039
17.48526200936547
17.28445457876516
17.05572279069902
16.86234835677254
16.75786933752541
16.77623760074635
16.9262282185037
17.19118615743708
17.53420716396473
17.90781571083751
18.26615923367551
18.5768493877822
18.82935672064153
19.03772862016785
19.23709397429013
19.47512638230303
19.80070665723875
20.25238242001016
20.84910412352301
21.58523350241863
22.43098134508406
23.33837803103916
24.25178122091762
25.12081381092707
25.91266851477326
26.62044969797657
27.26512101552174
27.89046884574172
28.55243221711545
29.30542772758657
30.18874066035368
31.21589140913684
32.36928135738304
33.60141278628385
34.84271458899617
36.01469127082878
37.04583293642914
37.8866873613817
38.5202594646575
38.96494749365592
39.26930981540114
39.50017004511663
39.72705189402782
40.00645182949727
40.36924019072036
40.81374318648289
41.30590818960082
41.78659567238822
42.18467206373968
42.43325167681992
42.48535711754337
42.32502846944679
41.97101352902936
41.47233851496293
40.89730539590891
40.31889818760858
39.80001319245616
39.38164424370013
39.07638513431737
38.86847158076139
38.72028073675842
38.58392098484575
38.41531035696399
38.18717296615115
37.89730269139432
37.56972948616271
37.2486686717963
36.9872199313772
36.83387514909772
36.82001265432717
36.95111747481565
37.20366236488695
37.52844916008594
37.85993274116655
38.12982539918208
38.2821510587637
38.28611516316296
38.14330047676341
37.88721340158563
37.57555977218111
37.27761119388682
37.0598603630686
36.97305053070293
37.04311187767006
37.26770261257362
37.61893540730983
38.05166558165961
38.51560861224629
38.96854230519899
39.38714026008699
39.7722070173039
40.14665516879356
40.54691657044582
41.0103816842053
41.56217215857315
42.20431904458971
42.90976891171619
43.62271074752488
44.26551007597162
44.75127460448611
44.99995163902062
44.95486635780701
44.59595802952294
43.94628363693033
43.07002342525866
42.06265355201519
41.03592460309417
40.10107538204741
39.35355026361354
38.86187728921176
38.6624453520925
38.76071943154187
39.13818957506815
39.76324933362697
40.6032198875599
41.63407006489675
42.84464526629881
44.23379011076163
45.80106339675874
47.53363496661452
49.39273309822196
51.30288180851171
53.14658466865345
54.76618918842495
55.97340035172673
56.56550962219119
56.34606007369051
55.14641998139973
52.8438923325169
49.37226204234873
44.72244593319947
38.93348058694885
32.07620033678761
24.23292120573545
15.47648820064791
5.85166421992726
-4.63877041808477
-16.04161164390991
-28.45361684457847
-42.01413240551611
-56.88940298412028
-73.24805395823844
-91.22826034386436
-110.8996195978187
-132.2257256087131
-155.0350721135467
-179.0074784404045
-203.6814078811809
-228.4850513288675
-252.7909919147191
-275.9906915057321
-297.5811051134017
-317.2512400367489
-334.9514260578652
-350.924896353583
-365.6850978065455
-379.9353026838021
-394.4441479866344
-409.9026260035453
-426.7908437777031
-445.2792441654341
-465.1826085278171
-485.977193524414
-506.8819004566562
-526.993984804589
-545.4585142573558
-561.6386771574573
-575.2454087062495
-586.3884138298077
-595.5308357495094
-603.3584694839719
-610.5970334818107
-617.8197520658465
-625.2849054293316
-632.8347266242224
-639.8757562260004
-645.4472321641889
-648.3693326387295
-647.4476955670959
-641.6954389501875
-630.5239402454821
-613.8573604676238
-592.1462995051785
-566.2845890976104
-537.4564339636986
-506.9512968609129
-475.9828954995793
-445.5418508595189
-416.3022028113663
-388.5914294939435
-362.4227618181823
-337.5780057353542
-313.7194183531381
-290.5033398085948
-267.6702178969298
-245.0956431386578
-222.8001729940396
-200.9261008511309
-179.6941282544837
-159.3529929963341
-140.132720768372
-122.2089108133904
-105.6820966550033
-90.57310247550267
-76.83251373170724
-64.36000069327919
-53.02787606112825
-42.70354862235934
-33.2671790524266
-24.62287619029023
-16.70342709487983
-9.469570691966817
-2.9052204893253
2.98998442509401
8.209572701415503
12.74944983977956
16.61635724444614
19.8345948621053
22.45008132897021
24.53088323104478
26.16365906910755
27.44628612185772
28.47800647243425
29.34907871818784
30.13184798976263
30.87466189705163
31.59953679714531
32.30395196377955
32.96654310086758
33.55583113693178
34.04051695561927
34.39930560164269
34.62789997829183
34.74120746728297
34.77015881729842
34.75426914964051
34.73220262790617
34.73274194331982
34.76810178081726
34.83092436530294
34.89563043308061
34.92402430976847
34.87426036686435
34.71154532731351
34.41827463846363
34.00092429024721
33.49149104783001
32.9427999911906
32.41890237935982
31.98304009754729
31.68587172918031
31.55623527793906
31.59611129622866
31.78071874195674
32.06379442730653
32.38719462756707
32.69310796973333
32.93638978421099
33.09407883899306
33.16959634388362
33.19064186768686
33.20170608543336
33.25342032329588
33.39129192026666
33.64608595234839
34.02761708237915
34.52308711067371
35.10030543588439
35.71523726027131
36.32242043353705
36.88592467575675
37.38799037866961
37.83283729005782
38.24456970055499
38.65997838150575
39.11838235828626
39.65105610305964
40.27252311750652
40.975460392722
41.73029148582393
42.48975137175024
43.19782575165755
43.80153829176895
44.26313137185553
44.56958313837143
44.73671546814982
44.80660430514583
44.83899710126996
44.89899243799415
45.04384454207443
45.31158748391537
45.71360519842241
46.23251436605608
46.82584219569102
47.43501190151175
47.99810880441122
48.46384220488616
48.80339086322574
49.01703543312564
49.13389410831127
49.20511301051353
49.29255126312232
49.45578842257545
49.74025088125845
50.16874374491209
50.7379279690941
51.42040258589579
52.17208326834835
52.94351035970861
53.69261974889789
54.39572007916197
55.05356017882579
55.69072675282403
56.34865807870912
57.07433469303474
57.90759060340456
58.86997420192031
59.95750421157754
61.13881595043519
62.3592326276395
63.55026982501432
64.64297214885953
65.58234613754168
66.33936367715985
66.9171905035396
67.34973520861345
67.69280980867319
68.01017831934001
68.35784564252681
68.7700000419271
69.24937618392337
69.76383120618729
70.24985133685877
70.62257606223658
70.79069603951888
70.67331704470969
70.21499918913274
69.39532826822253
68.23082864558583
66.76924283687477
65.07819265485638
63.23130462048998
61.29494560340763
59.31810405139909
57.32706275229249
55.32557251664773
53.30027971563164
51.23010844993375
49.09720100409396
46.89630287750595
44.63978942010272
42.35705163091938
40.08896036688424
37.87953634373247
35.76730093546989
33.77837373688392
31.92269375492803
30.19400934340607
28.57358017372905
27.03688052571018
25.5619300656253
24.13721585664947
22.76686593089276
21.47134755993668
20.28352131057089
19.24153052508955
18.38076331736027
17.72684622281652
17.29090776707262
17.06770504989151
17.03673620860725
17.16608144019308
17.41833907557248
17.75756109168239
18.15557225490564
18.59583877282553
19.0736360323086
19.59262058094822
20.15923784955686
20.77688748356275
21.44140491561456
22.13874258848815
22.84514829390571
23.52971934560527
24.15892023161113
24.70240082633703
25.13910710480516
25.46224506582741
25.68150572844787
25.82156252768596
25.91714652748363
26.00621168572951
26.12309742921381
26.29319844912457
26.52995567341423
26.83436466356384
27.19679233581533
27.6006867603546
28.02760215823937
28.46264986538081
28.8990647166097
29.34044504730667
29.79981829420885
30.29587212309414
30.84772405638247
31.4698761903662
32.16859874639567
32.94033464904069
33.77212943984276
34.64374261728231
35.53101542396942
36.41004024300205
37.26144391086982
38.07373031768632
38.84455782982071
39.57942110412866
40.28824926250689
40.9812239353258
41.66521506197438
42.34178186297051
43.0070315187859
43.65301925659936
44.27006302199211
44.84941927538276
45.38592730661501
45.88014011777393
46.33921936322648
46.77593653085305
47.20575858402383
47.64287378785698
48.09649244998598
48.56859149079663
49.05372336336281
49.54083876751093
50.01642926793632
50.46797328942744
50.88683966501915
51.27015566473076
51.62128036523526
51.94853000111679
52.2621074714355
52.56991368220822
52.8735948411629
53.166237951972
53.43256422725782
53.65171051518359
53.80195176027235
53.866076876171
53.83590791203545
53.71484483770626
53.51793306580674
53.26932689799181
52.99729868925191
52.72754475087278
52.47640118378932
52.24604578863539
52.02330955052471
51.78262490211037
51.49255174784115
51.12447315719583
50.66139605784984
50.10460672894242
49.47647337540558
48.81860221773824
48.18534583947032
47.6334212678638
47.20944166591143
46.9382314249591
46.81505099849455
46.80385766042472
46.84202196224948
46.85041079046096
46.74672076493835
46.45927128251301
45.93833763907724
45.16274481162379
44.14049208280804
42.90317343848458
41.49503346849302
39.95893918900617
38.3229147288824
36.59116144212315
34.74218695355362
32.73449144681947
30.51834312367779
28.05095924934103
25.31174158592081
22.31414831454155
19.11147425615797
15.79496473748177
12.48391813934416
9.308861979587775
6.390738205662343
3.820768846265784
1.646107627933573
-0.1351522829863563
-1.568833228023667
-2.731181001141715
-3.710338299511806
-4.586682059164767
-5.415826393649141
-6.217392233391574
-6.971564788191387
-7.624246757562448
-8.10015827406246
-8.321367283722157
-8.22692374006619
-7.788606422309986
-7.018987358206295
-5.970511687957985
-4.72669442622764
-3.387974271428976
-2.055298922956039
-0.8144585928881363
0.2762916584612354
1.193458609355464
1.949227196377265
2.58576762729246
3.163903812028588
3.748617172835223
4.39484220290833
5.136756359532153
5.982408838890658
6.913953536241755
7.892651216734012
8.8672366772522
9.784011745453434
10.59701399397215
11.27671366387863
11.81580114488366
12.23084130412922
12.5591793613153
12.85160121311506
13.16246983768033
13.53967655311953
14.01647462967936
14.60648782281579
15.30242919373883
16.07850201127237
16.89601957585105
17.71140834195653
18.4854040293091
19.19188071716961
19.82446197414173
20.39915730035571
20.95204989956157
21.53239532176405
22.19273694516398
22.97823408423523
23.91731279910238
25.01531909510827
26.25230935817967
27.58548438953986
28.95606054034839
30.29961666759751
31.55819156349729
32.69171423560022
33.68603620332387
34.555338948936
35.33809470681133
36.08752239729008
36.85883530534957
37.69613248119837
38.62164498492839
39.62947735685182
40.68514379106405
41.73117199564392
42.69794503155037
43.51786436124512
44.139942241371
44.5413774241803
44.73303879336805
44.75728513282822
44.6786858743866
44.57005199899896
44.49709922802013
44.5050406775575
44.60977573352291
44.79536412035704
45.01828885284607
45.21776244040204
45.33012466974179
45.30430088325716
45.11463289906816
44.76769202832944
44.30120277490362
43.77546424322797
43.25965471758656
42.81641387681649
42.4881018827206
42.28751126539134
42.19482827320041
42.16143646215613
42.11988263399545
41.99811170423009
41.73499902305291
41.29353295185378
40.66824966209363
39.88499556173868
38.99333675202785
38.05393060054276
37.12416442492449
36.24535279166735
35.4341639057228
34.67996494134716
33.94855526991322
33.19149654673415
32.35911739855253
31.41431827208906
30.34373827440646
29.16316564729743
27.91557348955303
26.6623609709093
25.47022809508566
24.39691169341801
23.47888979932813
22.72354608170668
22.10733355252695
21.58026552425925
21.0758573797198
20.52464391272656
19.86857636148581
19.07307821249197
18.13378732717248
17.07636503184977
15.94977086727902
14.81508995128922
13.73272511148297
12.75069099598633
11.89628518277931
11.17266941530526
10.56087893387379
10.02670463866881
9.530964950254184
9.040901286634156
8.539908910798403
8.032995714363718
7.54653471346808
7.122617016070745
6.809743595268071
6.65221267207837
6.680533347316153
6.904849372029347
7.312737024399895
7.871846344691857
8.536894489314772
9.259673238800302
9.999973932778751
10.73477504736943
11.46314692591625
12.20542779594529
12.99692760322521
13.87787978256503
14.88206827707231
16.0266058858061
17.30501952239185
18.68518675700951
20.11276415043741
21.5197024013154
22.8364217723098
24.00526476357192
24.99213719565048
25.79329976116691
26.43543675478787
26.96904188971616
27.45693097524814
27.96066528836867
28.52782466057609
29.18269324190561
29.92218628619828
30.71782918629961
31.5234611985237
32.28722025698561
32.96530337978157
33.534184345047
33.99794382502702
34.38853987053719
34.75889605755316
35.17068406484078
35.67986355781844
36.32329331093497
37.10931068425649
38.01430545710247
38.98612566299914
39.95386097887351
40.84231936953791
41.58836537358395
42.15540364696233
42.54222474437044
42.78365668702251
42.9427163057325
43.09625890992853
43.31758171073322
43.65981634577368
44.14353013880172
44.75102785591033
45.4285648649335
46.09624013082428
46.66389333016387
47.04993564971863
47.19893612307661
47.0935913838995
46.7579589422954
46.25126407263897
45.65414922267841
45.05090597365405
44.51172214404496
44.07859289784965
43.75761800541292
43.51912526160778
43.30561192948692
43.04601729950475
42.67336497553036
42.14161883595481
41.4373864982301
40.5834321425727
39.63345454239562
38.66005948127329
37.73929604865285
36.93539906749665
36.28891401048967
35.8105018482011
35.4815475543049
35.2613721826414
35.09950337630672
34.95014373542276
34.78498899304119
34.60059937551549
34.41810264592932
34.27555367623572
34.21545799669354
34.27088439131418
34.45341623304638
34.74553031890741
35.09910987657396
35.44068925704843
35.68278320710277
35.73940853456411
35.54273037921551
35.05695323681422
34.28579839772821
33.27159059183036
32.08652133058241
30.81873842789668
29.55670113449132
28.37498955752
27.3240891370631
26.42581498326795
25.67497602946891
25.0467232700179
24.5079312843945
24.02996281411049
23.59947969518
23.2241708656686
22.93174038713457
22.76269408302739
22.75923055027225
22.95320444491474
23.35593094915031
23.95204322232928
24.6988360150315
25.53149971137424
26.37352142334437
27.15047086367392
27.80442255964077
28.30560229890443
28.65807300606833
28.89777656995365
29.0835002337351
29.2832033014337
29.55892654163539
29.95340024720812
30.48092608028033
31.12427391174219
31.83821896552934
32.55912910296593
33.21885731034092
33.76010429367209
34.14961386996532
34.3856829441315
34.49793307554612
34.53960437229096
34.57465182596458
34.66288810093511
34.84642756406917
35.14017911875263
35.5282924474426
35.96732917298814
36.39568598526946
36.74758762337744
36.96880009274918
37.03032873175592
36.93641249797912
36.72454779802199
36.45760799851979
36.21025305017851
36.05295001016462
36.03706126445582
36.18398494955627
36.48046096919959
36.88098630831515
37.31701741418858
37.71140468621501
37.99527282207015
38.12354144649711
38.08513431167381
37.90516751359481
37.63868624116873
37.35778261532225
37.13530966024479
37.02878456810117
37.06776026220666
37.24715662508315
37.52788733940177
37.84478842232425
38.12050266578426
38.28260732525828
38.28010843167907
38.09512271602275
37.74668753729404
37.28590613704051
36.78401437387782
36.31650195211696
35.9469250296035
35.71380629641065
35.62326820182442
35.64888161498957
35.73883089146629
35.82908885581775
35.85989688357875
35.79166113342773
35.61604936382891
35.35918134790776
35.07610222755886
34.83816984237249
34.71659524773144
34.76591509332226
35.01093361339686
35.43987355524244
36.0052235812516
36.63230125071637
37.23408939987346
37.72947351281875
38.06079115814993
38.2062570876011
38.18396784881978
38.04658556050236
37.86836427437153
37.72787652841135
37.69037647855617
37.79350328055475
38.03920504353153
38.39345743157401
38.79383049493021
39.16346924540675
39.4286126287327
39.53555914351725
39.46267655554256
39.22428226186943
38.86569666451442
38.45130034383556
38.04895139468012
37.71450282331234
37.47980106683712
37.34666645511481
37.28803826814064
37.25598962185892
37.19493966341988
37.0571195399441
36.8163546101999
36.47618082118537
36.06979016494655
35.65186562434869
35.28472006408504
35.02232475114245
34.89587616032565
34.90401681779618
35.00987339515081
35.1457286247646
35.22467790306491
35.15729339269175
34.87011437695364
34.32186127455761
33.51329985036553
32.48821068922456
31.32548314261109
30.12465951700612
28.98838971314878
28.00535488438419
27.23680899100156
26.70910633030653
26.41339283143997
26.31227201867084
26.35196993408537
26.47731828186889
26.64590479111216
26.83764008671251
27.05728116811465
27.32970948796441
27.68982059807395
28.16992326807305
28.78767347549052
29.53724420114573
30.38578477104312
31.27620110155334
32.13605419398424
32.89113682642729
33.48107308088972
33.87329673035168
34.07166458639605
34.11726926637417
34.08131018959432
34.05200591303954
34.11864934367299
34.35607323515815
34.81244983468276
35.50267045653659
36.40851709978755
37.4855778134904
38.67554190975574
39.92118889099989
41.18031238532958
42.4346856158515
43.69149262103579
44.9769867495524
46.32433279542562
47.75878580022582
49.2835689586156
50.86944882653204
52.45026301418234
53.92555647488163
55.17016324568546
56.04916556656384
56.43520505553548
56.22393455976692
55.34328807446001
53.75377411465231
51.43965186777997
48.39332443507423
44.59663299580028
40.00296791347045
34.52368963394331
28.02154485996872
20.31269437790771
11.17785826698079
0.3820998166817602
-12.2981275655182
-27.04296700439803
-43.95551474399826
-63.03097320680122
-84.13367668741223
-106.9867099338497
-131.1775413193123
-156.1813803655843
-181.402123075741
-206.2287115941561
-230.102471688823
-252.5884951146288
-273.4411983838082
-292.6508835436235
-310.4563511267515
-327.3122709322764
-343.8109046923436
-360.5714744420314
-378.1195838593545
-396.7805268892456
-416.6064795837172
-437.3515922775891
-458.5018782560887
-479.3586615399228
-499.1655813197515
-517.2596566504495
-533.2167528712664
-546.9546990721007
-558.7611129567645
-569.2317381266624
-579.1315092966181
-589.2111968053631
-600.0200936504963
-611.7523036555364
-624.1561305550235
-636.5253678261386
-647.7785218666431
-656.6178881633191
-661.7451682796291
-662.094449501699
-657.0318578881355
-646.4734544213129
-630.8935534249136
-611.2266064715608
-588.6921086096054
-564.5843693111815
-540.0687310401572
-516.0187230282846
-492.9183951790545
-470.8420026894606
-449.51030201484
-428.4094734936567
-406.945796093067
-384.6004073673806
-361.0495229053071
-336.2278682676959
-310.3310897998979
-283.7682220665786
-257.0831591372515
-230.8650185521328
-205.6643043817595
-181.9272557489939
-159.9558053365695
-139.8956317212748
-121.749951156793
-105.4121717351778
-90.70751362555042
-77.43364373317156
-65.39320781776482
-54.41513045493676
-44.36490791461816
-35.14605097238781
-26.69541381693512
-18.97487884993373
-11.96133946366278
-5.636488229089513
0.02239111819214609
5.049706060871195
9.496205578036921
13.43036810123232
16.93601405334462
20.10613998149383
23.03385728402999
25.80208041752305
28.47386540138093
31.0851545787872
33.64136267026922
36.11872924220055
38.47060712345026
40.63798714281329
42.56272369350184
44.20113235984292
45.53503265588635
46.57742480574169
47.37123226052125
47.98152738250748
48.48337799338285
48.94822220408545
49.43161082056341
49.96467455881979
50.55095206193158
51.1692553131211
51.782147195779
52.34846875165839
52.83721434155642
53.23918753896236
53.57295694831556
53.88312183307849
54.23127851075622
54.68215781525902
55.28837609732084
56.07718701127967
57.04200051383174
58.14050513704967
59.30006800488214
60.42981370620818
61.43747496017761
62.24778740172534
62.81821438897683
63.14790617100022
63.27747894802609
63.27984890082869
63.24470102356663
63.26035245529155
63.39682421341931
63.693327259981
64.15240659835746
64.74178696826317
65.40362838475373
66.0694811391501
66.6777707489971
67.18953918621217
67.59821399430108
67.93081677585799
68.24065389014704
68.59389384843456
69.05365985723414
69.66534664924477
70.44624086888189
71.3815166765165
72.42745992154089
73.52146802536596
74.59700919292877
75.60032114689801
76.50458012464456
77.31738123173479
78.07909572412673
78.85241459311563
79.705879587737
80.69551441571367
81.84872141553254
83.15383945354971
84.55757693919882
85.9711462122271
87.28442699415497
88.38590644299798
89.18456912270129
89.6288031478171
89.71755723622503
89.5008500881872
89.06968588612172
88.53817731348232
88.02222945974798
87.61933129893053
87.39324976174383
87.36620037890931
87.51966537023341
87.80355470007503
88.15184177190726
88.5011937578702
88.80790473233237
89.05845283264888
89.27070332192737
89.48561023678819
89.75197639259437
90.10840621022082
90.56681354227531
91.10111647437303
91.6435528226648
92.08967677807644
92.31163703196728
92.17776065883574
91.57483066375045
90.42821272619764
88.71498357381255
86.46690133723536
83.7628907926747
80.71344829879975
77.4409818579632
74.0603623668575
70.66327807728409
67.30887397845319
64.02190996030279
60.79835248712726
57.61690664123136
54.45358652910569
51.29545899849272
48.14988511426878
45.04717018135835
42.03677711550115
39.17900229191049
36.53469045398271
34.15541128729068
32.07600087535559
30.31073223618522
28.85367397915783
27.6830308178733
26.76840224584603
26.07897966529628
25.59011631094904
25.28609992308092
25.15847431938396
25.20104243694262
25.40365298701364
25.74677477630008
26.19824568353355
26.71296616187825
27.2357983011188
27.70745859581465
28.07269297970818
28.28941956772175
28.33683818953941
28.22013402625801
27.9699837030674
27.63670193330522
27.28066532427481
26.96154743334932
26.72869260668595
26.61423136312194
26.6298270146043
26.76735274021991
27.00326404119322
27.30589454334305
27.64428953053435
27.99652700540327
28.35515118975359
28.72796182745824
29.13401627374169
29.59642032362821
30.13428014179212
30.75591149859607
31.45465575943421
32.20795704963163
32.97982433265231
33.72635927438672
34.40357328308155
34.97614298294703
35.42511688891089
35.75231361719499
35.97982553155739
36.14466032868868
36.29022481311641
36.45710890282623
36.67533912678379
36.95949642558963
37.30732878668232
37.70189798151564
38.11685351318643
38.52400306226314
38.90180821237784
39.24283221313249
39.55793100295143
39.87565225679128
40.23685687208015
40.68616233079658
41.2625547249202
41.99131595536785
42.87872828662357
43.91027712105726
45.05247091310643
46.25795711621806
47.47320045082591
48.64744066058248
49.7410342901608
50.7310495472703
51.61261882469761
52.39597462192827
53.10051114026621
53.74787851097829
54.35595255699004
54.93488714492314
55.48571473451671
56.00140191039322
56.46998987872088
56.87924810377459
57.22188626518901
57.49989332450339
57.72646514694663
57.92464787292812
58.12306503881238
58.35016212418546
58.6287363102883
58.9721787240946
59.38315119694654
59.85463367416155
60.37274149295644
60.92059083180078
61.48252919685992
62.04790212348708
62.61328116695991
63.18219561189556
63.76218246518393
64.36006016205936
64.97702773114447
65.60515722562134
66.22631028683685
66.81374284988546
67.3358481581701
67.76097347243909
68.06225662355627
68.22167178614731
68.23254357670793
68.09978650452535
67.8375114346392
67.46454554580022
66.99931999223799
66.4558224621612
65.84182489828333
65.15982210154573
64.41031097000217
63.59627312894985
62.72731616516522
61.82213603464918
60.90848228876629
60.02022735094787
59.19158998840753
58.44941177942309
57.80547115981112
57.25134770902459
56.75773981108633
56.2787762419292
55.76057856141261
55.15240439708083
54.41802813841175
53.54482210791471
52.54851179940722
51.47243219398669
50.38089543642113
49.34720256069618
48.43824780797959
47.69919287672938
47.14227581791535
46.742799136046
46.44325531022635
46.16455050853455
45.82192669492282
45.34236279850928
44.6800076107308
43.82668538584066
42.81541171194684
41.71582270726002
40.6216710915355
39.63238693770121
38.83268989120902
38.27523088779304
37.97043371880518
37.88551135031173
37.95226553417044
38.08155765010827
38.181329276713
38.17468355375698
38.01479281178287
37.69402167798231
37.24542236048124
36.73588145757041
36.25195221121956
35.88143763575686
35.69511186338788
35.73277460892757
35.99629671513452
36.4503912441504
37.03030301199485
37.65457161855432
38.24039328904441
38.71887075690773
39.04751517552085
39.21766126962919
39.25512944433322
39.21375258024435
39.1631392294074
39.17359572620489
39.30171264289595
39.57955492537835
40.00920857168955
40.56325220087813
41.19075287817925
41.82759544195578
42.40933797121437
42.88435552079208
43.2248039746356
43.43303983266304
43.54180970863683
43.60786518380802
43.70032982518197
43.88645851415532
44.21786167796786
44.71987554280717
45.38595999980042
46.17808352096372
47.03307174628284
47.8739109065667
48.62412855705162
49.22270608316415
49.63658870018537
49.86796483928411
49.95437673950556
49.96138909416727
49.96943053841442
50.05776682870902
50.28898065802916
50.69697362685597
51.28069901314447
52.0047762438879
52.80693639483945
53.61103724802474
54.34328958278621
54.94845507825833
55.40235503012488
55.71749213524705
55.94015704234712
56.13964979670175
56.39228229630348
56.76391245721786
57.29479528267254
57.98983558465132
58.81618436523833
59.70872166605135
60.58251302329486
61.34997994048599
61.93937503947581
62.31042543172583
62.46319342914783
62.43767883660962
62.30415564366802
62.14672244787808
62.04408221830178
62.05185374323578
62.19006351058872
62.43826445116404
62.73921799766217
63.01046941292403
63.16163498258038
63.11391925517161
62.81751591418592
62.26261273243131
61.48114578922006
60.53897724058506
59.52079057238042
58.51165421382996
57.57956043120192
56.7626196230116
56.06337395137236
55.45113893176011
54.87165398057267
54.26187876220315
53.56662737360285
52.75304646650147
51.81915272133837
50.7941430559575
49.73064790499378
48.69141556082381
47.73412594555837
46.89803989070018
46.19544735266595
45.60970306577008
45.10017981804632
44.61298857348002
44.09508541113689
43.50850134676212
42.84102065204185
42.11012353242745
41.3587492513463
40.64395076118219
40.0215737260797
39.53083866366316
39.18232046877468
38.95190167302208
38.78206325542494
38.59042193926401
38.28398331431985
37.77643772244028
37.00503929901789
35.9432768251535
34.60610759916322
33.04634245360771
31.34332495433532
29.58706350111387
27.86162360526303
26.23116091751205
24.73112716366457
23.36610050357588
22.11435557427694
20.9379431095149
19.79601003432438
18.65840905596901
17.51634581813852
16.3872448228378
15.31251442896711
14.34902820099074
13.55683267835471
12.98616572993986
12.66659609111954
12.60049564317695
12.76220796924799
13.10310067864854
13.56143422830721
14.07500944007725
14.59394761883073
15.09069104207407
15.56466321060396
16.04031054749421
16.55913872480999
17.16794618274378
17.90611508699997
18.794687338364
19.82945774375661
20.979575700906
22.19208726737713
23.40161951883879
24.54332366800324
25.56640457647349
26.44513554051629
27.1844941617238
27.81879792996748
28.40369187676677
29.00363740597116
29.67795153236012
30.46845880248014
31.39130546310907
32.43460971216251
33.56241341131685
34.724080787064
35.86717183667682
36.95101230834192
37.95772722241118
38.8977198634931
39.80784426989513
40.74260228335535
41.76067449031213
42.91015447121188
44.21590462559408
45.67183764094748
47.23988706462583
48.85606607479073
50.44256430110746
51.92360131901169
53.24185315454544
54.37174696995593
55.32611991596143
56.15409138189422
56.93032679406431
57.73823093882238
58.65103583461388
59.71497837201689
60.9381032122507
62.28700346787694
63.69222576526629
65.06138677713248
66.2975711356794
67.31942558160553
68.07862210205785
68.57043039420014
68.83451246276358
68.94560030309856
68.9964557196212
69.07731783118932
69.25649412254832
69.56612822500088
69.99590008713493
70.49576160612413
70.9870610703236
71.37982918957789
71.59269386553939
71.57098360459266
71.2985307880365
70.80003725189512
70.13347926127085
69.37486153131358
68.59949054560747
67.86437523682118
67.19567802337848
66.58378108603374
65.9868211430991
65.34179788066314
64.58085720588348
63.64918717906389
62.52026009663984
61.20436721542328
59.74799938738868
58.22430840912693
56.71743545589739
55.30483940744612
54.04177828811888
52.95126830269454
52.02151715835848
51.21118919171867
50.46122239939695
49.71059991235703
48.91256632601236
48.04735067391579
47.12793170216442
46.19716019763952
45.31717977977594
44.55427344863653
43.96308861291302
43.57384488307216
43.385220482927
43.36437546904875
43.45405057291037
43.58518040163206
43.69232573887577
43.72852408665534
43.67590802030549
43.54903785032425
43.38972989798334
43.25475707248091
43.19985428022748
43.26409412641443
43.4581688046846
43.75909126371626
44.11254985654958
44.44263075388168
44.66712083364578
44.71545136097866
44.54561980495681
44.1561872772652
43.59009280914957
42.928935716133
42.27906029051391
41.75292554435511
41.44997867457546
41.4408276255545
41.7575458747835
42.39162365887861
43.2994428697344
44.41355109600576
45.65682435293574
46.95588655976236
48.24992760709306
49.49176140188233
50.63998717728316
51.64392302385765
52.42520774513932
52.86071931267725
52.7709979237617
51.91732371414386
50.00917179947881
46.72198934844156
41.72347977140669
34.70526540613783
25.41602949190963
13.69194858144258
-0.5195089862224902
-17.14543475216594
-35.98464878700836
-56.71655253343834
-78.92116099645996
-102.1092923738782
-125.7613943935399
-149.3728337255967
-172.5026880609252
-194.8220171447464
-216.1557945727894
-236.5100454984526
-256.0738776201275
-275.1883605829109
-294.2822332017507
-313.7848349163647
-334.0336974913936
-355.1953959009577
-377.2152826165203
-399.8069349800786
-422.4863236508968
-444.6490760173214
-465.6820432517682
-485.0923005685448
-502.6275807548307
-518.3556452396932
-532.6738878119082
-546.2382064998877
-559.8245178457886
-574.1545188152367
-589.7232357988846
-606.6624525561411
-624.6662769179666
-642.9950085630497
-660.5616008956679
-676.0919543237477
-688.3358396747147
-696.2895921950359
-699.3801905217729
-697.5632459503624
-691.3095905428796
-681.4875017887653
-669.1739758527294
-655.4397374781806
-641.1510736320024
-626.8233405082847
-612.5496563130131
-598.0150794496622
-582.5924728513029
-565.5015289628282
-545.997730660803
-523.5481844527839
-497.9538402152097
-469.3945462036754
-438.3968319554485
-405.7430176728988
-372.3485215153545
-339.1337857881323
-306.9124171226106
-276.3106961839621
-247.7266711776254
-221.3301866459745
-197.0984048123981
-174.8748487856581
-154.4357912260937
-135.5486267376221
-118.0125881175085
-101.6794084534157
-86.45682872919248
-72.30011971256903
-59.19689623119779
-47.14965083648113
-36.15932242405492
-26.2121847193156
-17.27150310375051
-9.274578287205316
-2.134847292331951
4.252001681761538
9.999083926980436
15.21761564811415
20.00569418541782
24.43818651383824
28.55950726626114
32.38079299643606
35.88237164058584
39.02157914204609
41.74495432375355
44.00285416243834
45.76387843964518
47.02631695986994
47.82408937415388
48.22544271049237
48.32422965003292
48.22560142103646
48.02945586643851
47.81531400459436
47.63167139082254
47.49181549345015
47.37683022410973
47.24507902323101
47.04611250301883
46.73600394114969
46.29070158798327
45.71414258462489
45.03884370125576
44.31864157568575
43.61562072995569
42.98487875252444
42.46100470124469
42.04936088386605
41.7240760331648
41.4332889410478
41.1106813529948
40.69097666381857
40.12617244194838
39.39892348283859
38.52975677954506
37.57593770614083
36.62190521275004
35.76356546151614
35.09024807703141
34.6682960570982
34.52951443882748
34.66660395165829
35.03638744430602
35.57012184988506
36.18874967271979
36.81991683121292
37.41309898632297
37.94932428781458
38.44302829846196
38.93561338466122
39.48264160600712
40.13817064650665
40.94003657442111
41.89925799414606
42.99571120659217
44.18097047738671
45.38775765736524
46.54403773333014
47.58874400917617
48.48556991231278
49.231335603418
49.85641216579641
50.41669416166478
50.97904938096703
51.60394172904837
52.32938492627648
53.15976740505553
54.06192367517145
54.96939726803467
55.7942482998169
56.44421289464307
56.8418253000371
56.94147464414384
56.74043701770299
56.28096099683344
55.64259621486063
54.92655491088296
54.23589116101427
53.65597424153073
53.23926141609265
52.99724948283153
52.90102134831702
52.89013425418114
52.8879350341561
52.82005261132709
52.63204178471476
52.30210129200026
51.84572205010561
51.31113607325265
50.76696557866592
50.28546437401027
49.92551654415939
49.71920997583135
49.6647926726383
49.72744435771989
49.84768512792956
49.9556226699148
49.98793784948337
49.90375658656262
49.69551206021004
49.39181894402934
49.05135942092605
48.74927016853513
48.55949385815505
48.53732889361567
48.70604456520138
49.05037476769395
49.51828237447972
50.03074475676029
50.49766133118936
50.83663903454021
50.99061440689685
50.94021436196812
50.70772145158491
50.35158089966007
49.952966529556
49.59793428545498
49.35944082455278
49.28309154269867
49.37939498556559
49.62389102051021
49.96494414781183
50.3374254516732
50.67920317736262
50.9465565146045
51.12456183923938
51.22950496715114
51.30251937940675
51.39625087034514
51.55824666007439
51.81529744270922
52.16234165315032
52.55833832897421
52.93007834996703
53.18336031818941
53.21945478009957
52.95355586490317
52.33121422664949
51.33882825459136
50.00546370886252
48.39556779288202
46.59474624114376
44.69249577522282
42.76606084992615
40.86875844149242
39.02481234564473
37.23131625016842
35.46653162021151
33.70244741712325
31.91856371132363
30.11340897781371
28.31061720907364
26.55773582712817
24.91813352199932
23.45850450285877
22.23548600072214
21.28462600175441
20.613949018995
20.20323059425671
20.00897649086226
19.97402910842942
20.03978145414187
20.15832375336996
20.30164808719485
20.46549984953975
20.66677557807919
20.93530304227466
21.30255538620841
21.79049984505724
22.40330606808407
23.1236136069904
23.91398025298603
24.72316306142597
25.49601758846067
26.18504310401245
26.76105804700131
27.22036612172949
27.58630502778269
27.90439380162617
28.23214383213694
28.62618026710311
29.12989516896353
29.76438135788857
30.52435996033689
31.37967333418553
32.28190347197614
33.17482988511212
34.00669576581323
34.74167357624269
35.367793138762
35.89921728429675
36.37218858697634
36.83582844885844
37.34043288269725
37.92635133850492
38.61600736917155
39.41057413272679
40.29166168752089
41.22738357830162
42.1814315612073
43.12318784983974
44.03644695613097
44.92430946515809
45.80858402592138
46.72357932127608
47.7059533609759
48.78349318218522
49.9658494574604
51.23952483855216
52.56823830643776
53.89850872936068
55.16924327344851
56.32344028949497
57.31968036555626
58.14081617086256
58.79749723544271
59.32523087707025
59.77545768127484
60.20291604182398
60.65256657340043
61.14924496059131
61.69232023467229
62.25634371050601
62.79726436220985
63.26263530845858
63.60358358073546
63.78600004415616
63.79831424532054
63.65368575414217
63.38579606737526
63.03935633362754
62.65808326584092
62.27347809257669
61.89723212065587
61.51897892646324
61.10978675692193
60.63040886433244
60.0422276205893
59.31831588282667
58.45194866538851
57.46011595296825
56.3804624511419
55.26186987364389
54.15107433203896
53.07918239101523
52.05195465123035
51.04647140073861
50.01508791955085
48.89595404021131
47.6279423027929
46.16682734396478
44.4992096798298
42.65085466906334
40.68675113195592
38.70165042609165
36.802310372433
35.08540937013493
33.61676182907454
32.41712910274966
31.45787055082244
30.66710107031524
29.94484345467575
29.18407905312011
28.2936003304881
27.21821993631445
25.95213168524422
24.54207301362074
23.07874768468577
21.67782081684633
20.45488324810103
19.50067962383265
18.86260610128612
18.53628428953218
18.46821779100943
18.56825018119119
18.72898684436729
18.84834981428962
18.85096486034537
18.70414396248693
18.42491299020931
18.07610589402322
17.75203548097637
17.55701700131097
17.5819512156393
17.8843945398735
18.47611190763196
19.31997131569223
20.33612561619727
21.41598173036211
22.44135129259861
23.30537368733655
23.93138041531889
24.28599563574446
24.3836843735591
24.28171472679103
24.06671502460059
23.83598115801132
23.67771872745109
23.6542130639865
23.790866319885
24.07271781901868
24.4487730308588
24.8432186970289
25.1714116100395
25.35755130106672
25.3504549134883
25.13410174809493
24.73065752573659
24.19534238855323
23.60440632720385
23.03906160101794
22.56895795570276
22.23857185732169
22.05905274769666
22.00697080652409
22.03015692134622
22.05947647362197
22.02414631685789
21.86741137609667
21.55926122621301
21.10339944518601
20.53682376996681
19.92204303942165
19.33376935187886
18.84322172133954
18.50353387577688
18.33929150478833
18.34227737514073
18.47426055130724
18.67622672785313
18.88206977373263
19.03381578155441
19.09512355658287
19.06005999098024
18.95497176540788
18.83274622699478
18.76065903705295
18.80465770663242
19.01368954282403
19.40748758287214
19.97040391002202
20.6526530774838
21.37880191024743
22.06178417607263
22.61954787810715
22.99089755174556
23.1471417380691
23.09680764466493
22.88210431855581
22.56786494556546
22.22565213922387
21.91677449479663
21.67795019408493
21.5125898781362
21.38944756881627
21.24884190019772
21.01504964821831
20.61223015774832
19.98057463853132
19.08925336574274
17.94320981133745
16.58214836786276
15.07206798744029
13.49166287252325
11.9170305279757
10.40820127777198
9.000330219646976
7.701221816261136
6.495337222303547
5.352908577900501
4.241705815807164
3.138549999346253
2.03774462671947
0.9542184037900076
-0.07950565703684043
-1.021614560080983
-1.832194677067297
-2.484325036626717
-2.972321615987516
-3.315077598177265
-3.553510139871927
-3.742525044327692
-3.939297866528792
-4.1905595368416
-4.521800334319648
-4.930994139124759
-5.388594747715419
-5.844057476676031
-6.237329724345671
-6.512459016692044
-6.630185582919531
-6.576848718713947
-6.367707228667247
-6.043832127783653
-5.663135200224426
-5.287503401201235
-4.968895434228802
-4.737452002135568
-4.594325664161759
-4.511066858231742
-4.435893165858129
-4.305332643162432
-4.058378251077663
-3.649937400619337
-3.060775732814574
-2.301910205794917
-1.412456817991294
-0.4513323442971707
0.5153782707146493
1.428638898144443
2.249208320572351
2.966054264838809
3.598301384492891
4.190027543601944
4.799135298265533
5.483081340559437
6.284825446224801
7.222073848277279
8.282137531769267
9.423612392308437
10.58461771709428
11.695825272391
12.69546291405374
13.54307137084337
14.22892183839414
14.77670190042769
15.23854631905013
15.68349817946219
16.18221279463842
16.791472562877
17.54188742976076
18.43138533760933
19.42590645153711
20.46715736052068
21.48569616884192
22.41649850927657
23.21368931620788
23.86119838140557
24.3767338699597
24.80789064296455
25.22125276497644
25.68721386696186
26.26416245085579
26.98557702202839
27.85280003883433
28.83503580442668
29.87654892668893
30.90944402490195
31.86923991996659
32.70990422278292
33.41498867697046
34.00204802892372
34.51890444759702
35.03242963742335
35.61256449482974
36.31542426586448
37.16934120727388
38.16690027183054
39.26472173568747
40.39110605323898
41.45998978168294
42.38838083491964
43.1137328957039
43.60753367587639
43.88183470003177
43.98685986846929
44.00009762364562
44.00956057218518
44.09523175033753
44.31282539511293
44.68318821695519
45.1893083804208
45.78122698394748
46.38749852881665
46.93059468124278
47.34292047619481
47.57986734943101
47.62672989722333
47.4977070212399
47.22744448263133
46.85773738959423
46.42315265041729
45.9392592574683
45.39625501875326
44.75941900427722
43.97622963907401
42.98848224941553
41.74667213655332
40.22342429315142
38.42281166778131
36.38311892947284
34.17217275488511
31.87645083068072
29.58685879553526
27.38461848286546
25.33026702298763
23.45782329150045
21.77498675077334
20.26888314718439
18.91562743481003
17.69119877886984
16.58094816815901
15.58538458323273
14.72070853443248
14.01396274658681
13.49430347754606
13.18297785735693
13.08468856187078
13.18244251711435
13.43717299555877
13.79247324654785
14.18363706141894
14.549104438164
14.84176269868859
15.03752495770035
15.13908706919044
15.17370384347195
15.18527021980715
15.2225972210252
15.32677596134514
15.52052567751226
15.80176150648168
16.14275378338917
16.49522283349504
16.80045331082662
17.00230181281024
17.06027219353218
16.95981226710996
16.71748068290199
16.37956365638886
16.01416665561207
15.69849728135429
15.50425823347479
15.48431057253325
15.66328619246129
16.03402462254292
16.5606030040505
17.18729278170614
17.8513955485714
18.49710547748666
19.08744770909272
19.61173438114341
20.08678955389266
20.55155636973051
21.05640860582356
21.6498295814324
22.36556155941713
23.21301655794824
24.17304185430482
25.2000880613531
26.23040393004306
27.19443828920172
28.03070066061445
28.69810135682794
29.18408137406757
29.50658413623663
29.70925426412716
29.85099437512208
29.99246788645269
30.18271351309047
30.448794585764
30.79070021326739
31.18265142029332
31.58054528559325
31.93381642036942
32.19901469563027
32.35208806798681
32.39656639461489
32.36551874143203
32.3164692063862
32.32025562351844
32.4464021874504
32.74831470633743
33.25148872633848
33.94726373568284
34.79356491022043
35.72256966565781
36.65367167439054
37.50901571296948
38.22844191779021
38.78076210895165
39.16887380838472
39.42749909658162
39.61418709507156
39.79593162395454
40.03464296167286
40.37470864177509
40.83528549112068
41.40891443764465
42.06658272269011
42.7678184739739
43.47330073297421
44.1570018367082
44.814915205529
45.4679578004699
46.15789322687484
46.93699028366134
47.8539002872513
48.93917540520997
50.19384399752893
51.58380183361243
53.0416308108969
54.47588868213604
55.78627014211977
56.8818194281686
57.69877241348657
58.21451494113308
58.4546130166864
58.49117272269402
58.43283904752535
58.40879150096136
58.55030033143643
58.97354714857018
59.76678508245786
60.98378053160908
62.64397535672765
64.73823289488185
67.23780671016391
70.10349947442124
73.29184316198662
76.75567326836655
80.43796334300946
84.26001125278889
88.10710138228558
91.81573266663494
95.16628569146692
97.88400437933109
99.64970413700232
100.119857636531
98.95393597145224
95.84545479662572
90.55229951546362
82.92169105880802
72.90582930511015
60.5659638812019
46.06494581444294
29.65021547217826
11.62998822455731
-7.654726128330896
-27.86008332372439
-48.66952739737607
-69.82242561903563
-91.13935914970675
-112.5412606386187
-134.0577759425394
-155.8187589485438
-178.0241841436931
-200.893190887847
-224.600103969707
-249.2101497606214
-274.6284984132217
-300.5742592177435
-326.5875311896866
-352.0730328710864
-376.3783942060418
-398.8991107238743
-419.1950698070895
-437.0954213911232
-452.7628850794021
-466.6923675238885
-479.6351220968349
-492.4616978471788
-505.9931788125471
-520.8354085326978
-537.2477457576258
-555.0707794331709
-573.7281215272171
-592.3062687483214
-609.7041053997249
-624.8297747908406
-636.8075922408938
-645.1465981665872
-649.825304215643
-651.2689073264902
-650.2268783516678
-647.5846120107542
-644.1539029978439
-640.4855070578852
-636.738872893876
-632.6325482662588
-627.4848588579058
-620.3392955348218
-610.1531271208243
-596.0119916190403
-577.3227935695774
-553.9403051143807
-526.2018114770269
-494.8706972557521
-461.0115735987453
-425.8295934795534
-390.506454306968
-356.060006308005
-323.2465238271375
-292.5158440067765
-264.02053601725
-237.6712912135773
-213.2222372804417
-190.364343330372
-168.8058446284489
-148.3259014254836
-128.7976640493937
-110.184994142383
-92.52118266337331
-75.87864223840884
-60.33730145252694
-45.95750736479793
-32.76124081789045
-20.72355169155835
-9.77422084193258
0.1922584321738694
9.301685839312384
17.68372571392974
25.45689682942967
32.7168041713714
39.52860129542434
45.92410001702745
51.90353802771853
57.44166250793126
62.49738932261628
67.02581570401628
