-12.27715831587869
-16.53421733225012
-20.58292885127685
-24.31594258898816
-27.64913032755094
-30.52644685709879
-32.92183546396912
-34.83801902301931
-36.30249891693438
-37.36151386951685
-38.07296622212055
-38.49936343838862
-38.70168698133862
-38.73486184763028
-38.64521521897254
-38.47000170369379
-38.23874631951541
-37.97585634647175
-37.70374463559265
-37.44564491158015
-37.22741000343256
-37.07785176288551
-37.0275432780309
-37.1063651287044
-37.3403476960994
-37.74848723134629
-38.34018826778209
-39.11383260570781
-40.05673027062066
-41.14642085172351
-42.35302663845964
-43.64216493681388
-44.9778448972074
-46.32483082444836
-47.65014548315315
-48.92366480667997
-50.1180402626807
-51.2083937945502
-52.17229563481824
-52.99042287957375
-53.64803278219635
-54.13706940811495
-54.45847207080569
-54.62411515210361
-54.65776656472735
-54.5945153296334
-54.478331279423
-54.35778489355241
-54.28039598134476
-54.28647349367822
-54.40354020309609
-54.64243263744198
-54.99590592368605
-55.44009435419738
-55.93860592835411
-56.44853094885747
-56.9273216706807
-57.33935823092985
-57.66105874091377
-57.88365361935436
-58.01321714638355
-58.06812867117868
-58.07466312356183
-58.06175020484035
-58.05602843402284
-58.07814941439612
-58.14090560922699
-58.24927669631315
-58.40205778011305
-58.59442082335819
-58.82057976709403
-59.07572406841134
-59.35661956508812
-59.66072334722839
-59.98417241458535
-60.31939957848154
-60.65328487960159
-60.9666449337607
-61.23553258620947
-61.43434170032745
-61.54022626588051
-61.53799539158794
-61.42448059586673
-61.21136197851649
-60.92560874240037
-60.6070945769823
-60.30355214913411
-60.06366578624382
-59.92956444693292
-59.93014463718111
-60.07651120512975
-60.3604093617769
-60.75590401667401
-61.22390421350656
-61.71862830147937
-62.19482991845941
-62.61450914086949
-62.95192031457236
-63.19602593659742
-63.35011816167594
-63.4289746695783
-63.45442335868641
-63.45043157166904
-63.43879902629627
-63.43625635905434
-63.45331517395142
-63.49472693980373
-63.56105708872467
-63.65070168394749
-63.76160001384562
-63.89194122559006
-64.039421159936
-64.19908066123404
-64.36029104662046
-64.50382806138508
-64.60005995399648
-64.60906562369144
-64.48305006186614
-64.17082908659967
-63.62359871425475
-62.80087393888166
-61.67539566477265
-60.23587704501589
-58.48670048517472
-56.4441638085494
-54.1295730411836
-51.56019088381396
-48.73953599728582
-45.64866234272684
-42.23986521600953
-38.43386320372136
-34.12096110248371
-29.16607934955799
-23.41697315000023
-16.71458904355321
-8.904364895620496
0.152662025208182
10.56990753373046
22.42727027575106
35.76588969651506
50.58636876805962
66.85112476199707
84.4912484813085
103.4176117613184
123.5349650964531
144.7566416798214
167.016481530461
190.2738109592019
214.5070500243949
239.6926187785517
265.7690551926154
292.5911226617866
319.8831650985496
347.2030112084661
373.926754848694
399.2615639238168
422.2892181648767
442.0377270946569
457.5726432258972
468.0946058696388
473.0262418318927
472.0708946005158
465.2295657715524
452.7719807317005
435.1702300846649
413.013204150434
386.9226542735366
357.4876445288331
325.2271618840734
290.5836963127969
253.9442415978688
215.6794701900883
176.1879199103209
135.9310819192395
95.44773691313499
55.34199036585233
16.2484874165575
-21.21319688041179
-56.47980291911571
-89.07003339199657
-118.5913390693782
-144.731517869738
-167.242130279894
-185.9212632859158
-200.6024766553131
-211.1551012637597
-217.4980137160291
-219.6248430519159
-217.6343345819152
-211.7567223204302
-202.366853608714
-189.9780490037546
-175.2161423235515
-158.7783701945811
-141.3846499883261
-123.7289188095401
-106.436715455012
-90.03327346758083
-74.92446817786335
-61.39098600203985
-49.59420166962438
-39.59081248050025
-31.35255827422398
-24.78742423553289
-19.75947808207104
-16.10564929061742
-13.64890341249156
-12.20804556798833
-11.60470812532098
-11.66811054272029
-12.23814629272927
-13.16731925688744
-14.32197161856572
-15.58311841354742
-16.84710189058386
-18.02623112225685
-19.04952981690822
-19.86362542350726
-20.43368171252925
-20.74415921666904
-20.79912293758409
-20.62178874047949
-20.25299052065749
-19.74830258964096
-19.17370976215994
-18.59994500468457
-18.09585436964285
-17.72139930381435
-17.52115051416443
-17.51925436401181
-17.71673269196276
-18.09160480301848
-18.60184496693715
-19.19077682712234
-19.7941961514888
-20.3482674121717
-20.79709689101886
-21.09893223485005
-21.23016900773401
-21.1866900032769
-20.98250408090465
-20.6461592724064
-20.21583005769803
-19.73412776553727
-19.24350537409403
-18.78277156456194
-18.3848915373496
-18.07600484872461
-17.875399953374
-17.79605308006368
-17.84530015465653
-18.02524950485093
-18.33264836717483
-18.75814227952532
-19.28521691235034
-19.8894285457132
-20.53860146084378
-21.19443542044495
-21.81556506076773
-22.36174377748939
-22.7985711215412
-23.10203148082682
-23.26207656019032
-23.28458824853113
-23.19125678324197
-23.01716316942418
-22.80621166293523
-22.60503022883403
-22.45639171707898
-22.39337949759426
-22.43533299893191
-22.58617615234763
-22.83524996845028
-23.16034022197661
-23.5322377067792
-23.91995551464879
-24.29570463720927
-24.63883584195611
-24.93813268470149
-25.19214047275002
-25.40767111646113
-25.59709179988801
-25.77525792565688
-25.95688378065982
-26.15485933269859
-26.37969266190362
-26.63995525577631
-26.94333422935076
-27.29772972848362
-27.71186206116429
-28.19501113813529
-28.75569772410893
-29.39935251946434
-30.12534994333313
-30.92410746988848
-31.77508190218236
-32.64634687496196
-33.49609996481233
-34.2760700108485
-34.93643404708799
-35.43152080196671
-35.72537088814829
-35.79624119712089
-35.63932360400433
-35.26718652571278
-34.70776125764743
-34.00013316944462
-33.18886353519736
-32.31787302630562
-31.42496023665087
-30.53784650669929
-29.67232223780733
-28.83266522626737
-28.0140442757616
-27.20623191501305
-26.39776301920607
-25.57969309591791
-24.74825561953607
-23.90598217766407
-23.06123460127499
-22.22649902491143
-21.41604905981508
-20.64362376203277
-19.92063077363387
-19.25517096086766
-18.65194979629085
-18.11291908730653
-17.63832406039641
-17.22775361214442
-16.88079112628919
-16.59693745568827
-16.37468446712514
-16.20995674240217
-16.09446201315434
-16.01461453241706
-15.95156284047674
-15.88255433081502
-15.78353809800911
-15.63262102513531
-15.41377274246401
-15.12005836906458
-14.75569817000228
-14.33639487682352
-13.8876187025296
-13.44092813513231
-13.02889848241229
-12.67964541371568
-12.41205543993561
-12.23262055233453
-12.13436146658838
-12.09790055364524
-12.09439800045813
-12.08978528049642
-12.04952873961517
-11.94307839945035
-11.74721260920867
-11.44768010748692
-11.03892216037837
-10.52221553553318
-9.903082757944413
-9.188965070106747
-8.387872839369988
-7.508240494295721
-6.559794470913499
-5.554998014747456
-4.510528227509509
-3.448233333463835
-2.395101506456444
-1.381914363930703
-0.440461315782787
0.4004625015904453
1.119559837116338
1.706924248513837
2.166226594779806
2.514580918798296
2.780139186261784
2.99798499250232
3.205156167229609
3.435668115888313
3.716300569496894
4.06372825792999
4.483400570757182
4.970383113690137
5.512037129820411
6.0919126941689
6.693815827251557
7.304998080600691
7.91784666747427
8.530029948650807
9.143470514184434
9.762691645268665
10.39306549211238
11.03935188206057
11.70476049355741
12.39069446786837
13.09728737700766
13.82465533050893
14.57441799623797
15.35074578075739
16.16027636607492
17.01072661049703
17.90859101772041
18.85665224220903
19.85205213691019
20.88545611737914
21.94150691302903
23.00046555313445
24.04078934417454
25.04233126265748
25.98969661970802
26.87504305133425
27.69948572494939
28.47252530829299
29.20952044850021
29.92785318029151
30.64277938065038
31.36394304876177
32.09324508693118
32.82434014315639
33.54367272276453
34.23276190461229
34.87133053412828
35.44071713815723
35.92681940061323
36.32179002161775
36.62401815248628
36.83651204389314
36.96434956515306
37.01211838481104
36.9821668028619
36.87411919187085
36.68565326418686
36.41420038850953
36.05911004558012
35.62382099858301
35.11756724148208
34.55611140942681
33.96107736365293
33.35776682261179
32.77182213520036
32.2255011883523
31.73447072625906
31.30586917354155
30.93800354475733
30.6215699243356
30.34193613745676
30.08192238020424
29.82458192716647
29.55556944093528
29.26474858322562
28.94681076682182
28.60091219784444
28.22961456281626
27.83759135510538
27.43056808624133
27.01481190563575
26.59720045238671
26.18558369402551
25.78899835616549
25.41739091696768
25.08073180342971
24.78759595984475
24.5434027725416
24.34860616747987
24.1972253709979
24.07613909043841
23.96546539228754
23.84015294801013
23.67267263297261
23.436420878355
23.10919054723039
22.67599934632824
22.13075745673832
21.47656690839814
20.72470564214811
19.89252109568411
19.00059361672578
18.06964606589158
17.1177130087036
16.15799682344062
15.19767694655854
14.23776152256881
13.27387647283555
12.29770293791091
11.29870045606771
10.26583353315029
9.189163703744011
8.061257672399703
6.878362017116388
5.641264006376848
4.355758849749584
3.032672646648104
1.687413689559597
0.3390494217573555
-0.991048649977999
-2.280909578790568
-3.509920442513117
-4.660903477123997
-5.722065299921471
-6.688429349968406
-7.562338091344891
-8.352790773780534
-9.073692411496081
-9.741370419568549
-10.37186869866589
-10.97854889602668
-11.57043464799883
-12.15155767294049
-12.72137236132329
-13.27615076399838
-13.81111390715585
-14.32283308271545
-14.81121367251603
-15.2803551599314
-15.73788528227871
-16.19287417731291
-16.65289067876775
-17.12099647778
-17.5934643064335
-18.05880692990407
-18.49839612439162
-18.88864105339348
-19.20445036490776
-19.42347977159712
-19.53040024620632
-19.52019830670225
-19.39957248673719
-19.18594506851815
-18.9042986967699
-18.58264540979024
-18.24722074769711
-17.91844961950501
-17.60844935296823
-17.32044384204742
-17.05007975217767
-16.78832464081587
-16.52535836659473
-16.25459865641384
-15.97581590725015
-15.69640217555676
-15.43036928579016
-15.1953768928222
-15.00868282285994
-14.8831296068369
-14.82413542377525
-14.82829787539752
-14.88381100670758
-14.97254214604973
-15.0733448367862
-15.1659724503204
-15.23477638456608
-15.27128416698004
-15.27491480176972
-15.25158329444617
-15.21060822305294
-15.16084491331725
-15.10711119672673
-15.04777735667959
-14.97401706070259
-14.87081132143675
-14.71945472826987
-14.50107739145498
-14.20054803923773
-13.81000469525818
-13.33119595775862
-12.7759624754198
-12.16464274652891
-11.5228007755138
-10.87713714249319
-10.25156197835512
-9.664216805530662
-9.12589648067288
-8.639981805702467
-8.203725528841373
-7.810565394456222
-7.453020261477497
-7.125586098332598
-6.826931320005046
-6.560772347234019
-6.335193344032366
-6.16071170356237
-6.047789140963827
-6.004566316441199
-6.035399600735966
-6.140458381869625
-6.316338499342987
-6.557453963937045
-6.857906638438874
-7.213505998591438
-7.623498831398234
-8.091427043219925
-8.624586340709403
-9.23194098768089
-9.920908219237473
-10.69384778235738
-11.54517875717626
-12.45983081688639
-13.41337450024715
-14.37380034363281
-15.30463163985238
-16.16891883882636
-16.93361041657721
-17.57368797633889
-18.07530297701735
-18.43717105090877
-18.66983029350853
-18.79294246351519
-18.83132017479033
-18.81059206158388
-18.75336811590812
-18.67653923404142
-18.59002884576435
-18.497002627468
-18.39532863101605
-18.27995418689327
-18.14571580242483
-17.98991399982846
-17.81394485866944
-17.62353758475568
-17.42761625536006
-17.23623382036079
-17.05824114394615
-16.89934412860737
-16.7610309924243
-16.64058166238274
-16.53209594026799
-16.4282991902298
-16.3227921642147
-16.21229498956419
-16.09829147368376
-15.98748454738853
-15.89076652154981
-15.82088846431101
-15.78942409446879
-15.80379227739007
-15.86503794382794
-15.966862604819
-16.09611097072211
-16.23462901488488
-16.3621887205618
-16.46002394874661
-16.51436316660511
-16.51919488223455
-16.47753378245543
-16.40079898920137
-16.3064578634504
-16.21455735544219
-16.14397421907082
-16.10916867173312
-16.1180166795601
-16.17101126187747
-16.2618498786551
-16.37922798847221
-16.50950145787415
-16.63967519025328
-16.75997110745665
-16.86523581586188
-16.95480007449893
-17.03095914262351
-17.09670191330601
-17.15347996979203
-17.19969427868857
-17.23030508027275
-17.23763965378072
-17.21318342468358
-17.14998160377627
-17.04521508202586
-16.90241693582177
-16.73267548991658
-16.55423709954571
-16.39032323949617
-16.2655673802542
-16.2019336167552
-16.21509042340039
-16.31201433265975
-16.49024930075271
-16.73886874662758
-17.04085131198893
-17.37635741271107
-17.72629026502593
-18.07546770692691
-18.41470777406827
-18.74127762256088
-19.05757852637266
-19.36850854720023
-19.67836301544805
-19.98820665743613
-20.29442451423479
-20.58879964369673
-20.86009084569044
-21.09674733091619
-21.29016514537375
-21.43779712408019
-21.54541671795731
-21.62787337922411
-21.7078708099523
-21.81275413434101
-21.96989131577389
-22.2016848785651
-22.52134507066108
-22.93032437670394
-23.41791942083966
-23.96311594053212
-24.53834791686129
-25.11452141243512
-25.66644430736122
-26.17766826647955
-26.6437012811752
-27.07273176799162
-27.48353108210676
-27.90093979994986
-28.34997579316435
-28.8498843732254
-29.40936471320651
-30.02388004657164
-30.67551527047491
-31.33536827186662
-31.96802814163513
-32.53734488446355
-33.01241531491435
-33.37253902449345
-33.6100046739862
-33.73007552623236
-33.74832045948791
-33.68614722831565
-33.56576751782631
-33.40581167144696
-33.21852649089397
-33.00905914691879
-32.77684538634742
-32.51866812690339
-32.23260381302564
-31.92184445170074
-31.59729915087468
-31.27805479264777
-30.98930143259562
-30.75807766672144
-30.60785042537418
-30.55325100197196
-30.59620132786132
-30.72430712900672
-30.91190983233564
-31.12366195253351
-31.31999653214137
-31.46348922118955
-31.52490794803715
-31.48772722802086
-31.35012293031397
-31.12401853764974
-30.83150067768847
-30.49956447584531
-30.15445090368455
-29.81677846466706
-29.49838105967991
-29.20136029665485
-28.91939103112626
-28.64084447017645
-28.35292264745467
-28.04579807302954
-27.71573190123554
-27.36635046887814
-27.0077429934998
-26.65368768100831
-26.31784731767597
-26.00998959840235
-25.7331797732648
-25.48259789020417
-25.24627359080882
-25.00765553100912
-24.74955626180409
-24.45867930185121
-24.12970642901639
-23.76787821258448
-23.38924134065103
-23.01829765881562
-22.68350841924104
-22.41167964397674
-22.22247219840608
-22.12415561663282
-22.11140249351852
-22.16552910087527
-22.25717521476083
-22.35098689938669
-22.41145594934713
-22.4087638596478
-22.3233879339982
-22.1484616375231
-21.88945745210791
-21.56149635805707
-21.18517187932864
-20.78199889752871
-20.37048092258954
-19.9634972778704
-19.56737754268119
-19.18268606240716
-18.80638138074269
-18.43469628993581
-18.06589248231046
-17.70204887641396
-17.34929798118892
-17.01642782207744
-16.71235556642159
-16.44337055052586
-16.21105907503233
-16.01152612353507
-15.83613280692117
-15.67363090763897
-15.51331060330805
-15.34854387038744
-15.17992797818274
-15.01718407126919
-14.87910445597337
-14.79121201230249
-14.78138179980189
-14.87430451618852
-15.0860532056117
-15.4199694655926
-15.86469612217543
-16.3946884143577
-16.97310505297347
-17.55662532867057
-18.10142265533011
-18.56928266342456
-18.93275846867026
-19.17836146414962
-19.3071433839876
-19.33263541731594
-19.27680347672468
-19.16515151030831
-19.02215651137146
-18.86791515804749
-18.71645488594697
-18.57578647676414
-18.44947042640342
-18.33919398874421
-18.24762260374795
-18.18066134748156
-18.14831460028629
-18.16364777894458
-18.23994308788882
-18.38681165340544
-18.60644523801243
-18.89114984042546
-19.22288240285119
-19.57497970154218
-19.915834379414
-20.21396484521897
-20.4436816421861
-20.59035691304602
-20.65420956103452
-20.65161981557644
-20.61338620496722
-20.58004370969248
-20.59516393815349
-20.69810118111916
-20.91769940971045
-21.26809870825752
-21.74723247492462
-22.33809739699329
-23.01245205588749
-23.73622976212286
-24.475653498154
-25.20287451129926
-25.89999003132461
-26.56061174747393
-27.18877559105999
-27.79573023470535
-28.39568599615836
-29.00171435694934
-29.62271135765727
-30.26191334737866
-30.91705888882672
-31.58194941860921
-32.24886540632679
-32.91109360307392
-33.56475568862448
-34.20920979181802
-34.84557940900668
-35.47349884944217
-36.08681886510631
-36.66947960935315
-37.1927912691492
-37.61500162402038
-37.88350342304712
-37.93951466980739
-37.72457218653679
-37.18773285963356
-36.29209391176693
-35.01921762121516
-33.37027892505218
-31.36325547297337
-29.02625994440317
-26.38801374878006
-23.46713622809009
-20.26209999011732
-16.74339737244863
-12.84893676592961
-8.483191576290785
-3.520193144158561
2.19000274622797
8.812207101073826
16.515450550029
25.46185819474241
35.79581372433608
47.63385299139196
61.05562682891473
76.09653780980202
92.74314708967562
110.9328102380369
130.5588838324925
151.4820553300665
173.5469625656881
196.6016633371665
220.5161031469934
245.194678853346
270.5775465676742
296.6262584831974
323.2924601032897
350.4733783400343
377.9628405003479
405.4094609021672
432.2934560760202
457.930720599715
481.5081258503232
502.1481000083444
518.9943063066986
531.3049383884352
538.5367117262093
540.4019040063085
536.884522626931
528.2109842315008
514.7831553242643
497.091675160623
475.630817626937
450.8328531049663
423.03320755534
392.4703977114901
359.3174849796604
323.735182184903
285.9321984964933
246.2169755707505
205.0269075420375
162.9269101686524
120.5785404459368
78.6905266164995
37.96646257992845
-0.9369251006153334
-37.43461474834322
-71.02189652857021
-101.2714861689785
-127.8254005852937
-150.3880228212532
-168.7258073043561
-182.6766887859758
-192.1687214052295
-197.2435658149155
-198.0773145878514
-194.9902760891398
-188.4397071341105
-178.9944126871406
-167.2953073591278
-154.0091455161422
-139.7829938603346
-125.2055610329054
-110.7793971023615
-96.90579658677231
-83.88212446180083
-71.90941156465617
-61.10674143310523
-51.52847208193737
-43.18080635330552
-36.03542637064136
-30.03936232875702
-25.12146335857683
-21.19648405108735
-18.16791722714888
-15.9305028138982
-14.37300102117432
-13.38141808501501
-12.84249639521583
-12.64704775104059
-12.69271718322612
-12.8860114298105
-13.14376102957877
-13.39438244000057
-13.57924302485639
-13.65418993035668
-13.59107136008263
-13.37895833732604
-13.02472247759234
-12.55256780174936
-12.00207930959907
-11.42443503295996
-10.87669455204466
-10.41453071515037
-10.08434424302537
-9.916177639899415
-9.918919527711052
-10.07882919819984
-10.36162797180612
-10.7176887161858
-11.08941915772626
-11.41969519937334
-11.66002591985378
-11.7770762046455
-11.75637612061326
-11.60253982125023
-11.33603531248737
-10.98737207464158
-10.59025573883553
-10.1754576384423
-9.766721618000059
-9.379235879253393
-9.020480011517316
-8.692846476334173
-8.397224410113871
-8.136570280241703
-7.918430582513781
-7.755564012091467
-7.66425197429966
-7.660515792200449
-7.755166296419674
-7.949156307159424
-8.230761684961447
-8.575563772815222
-8.949326478151331
-9.313118713994164
-9.629665049331326
-9.869806648677198
-10.01794007526039
-10.07536508734559
-10.06070869892854
-10.00704700179127
-9.95600990241192
-9.949942691186317
-10.02384606401776
-10.19895550165359
-10.47931087709968
-10.85178114430684
-11.28920096454384
-11.75578666619383
-12.21376232797308
-12.63001011823214
-12.98154763767658
-13.25878411062961
-13.46586458456425
-13.61801364060985
-13.73658164298293
-13.84320454809301
-13.95473001362693
-14.08017953823219
-14.22025617307385
-14.36920124707517
-14.51837134977722
-14.66065544704364
-14.79465953459854
-14.92752556687263
-15.07545480842495
-15.26147877481618
-15.5106904440901
-15.84391092737364
-16.27138616133882
-16.78825027150775
-17.37301089005457
-17.9894498817397
-18.59154173268712
-19.13051420704796
-19.56288901017192
-19.85808118630052
-20.00401776271909
-20.00947338315226
-19.90242763551714
-19.72458744517617
-19.52313386597572
-19.34150275108359
-19.21126432050707
-19.14677312485176
-19.1434363599228
-19.17962703030947
-19.22170136081969
-19.23117050190089
-19.172676608238
-19.02115349612945
-18.76664806452104
-18.41577928231557
-17.98958631574578
-17.51840849591859
-17.03520678990961
-16.56905948428445
-16.14029087058494
-15.75802030470533
-15.42025033139156
-15.11618406280839
-14.8301790831376
-14.54643725904663
-14.25327000845452
-13.94579090979528
-13.62625909831145
-13.30194911463886
-12.98120376694839
-12.66897307571329
-12.36332970157644
-12.05405671248953
-11.72366612041107
-11.35053633187758
-10.91347628732964
-10.3968398488432
-9.795163368793064
-9.116221993543927
-8.381561414930514
-7.624030194489901
-6.882555579839496
-6.19522076206341
-5.592316774548599
-5.091112207147289
-4.69351664925761
-4.386916147622843
-4.147690674024039
-3.946505784217324
-3.754289307427558
-3.547699965891317
-3.312918113852489
-3.046878971501155
-2.755634448501793
-2.450263293142273
-2.141494620992309
-1.834699774118246
-1.526828098383484
-1.206158103117802
-0.8547709211145589
-0.4529273456754142
0.01576203691589916
0.5595124710608482
1.174977445766736
1.846229993973163
2.546663484350996
3.243760486083302
3.905939253744593
4.509951822446348
5.046868918333487
5.524899773413445
5.968214340963755
6.412131276035882
6.895920539971292
7.454805233767948
8.112717249894505
8.87719376388579
9.73750184416967
10.66655927825172
11.62648879728881
12.57678835094024
13.48328347071108
14.32557573887706
15.10099155114452
15.82410404355558
16.52225420324583
17.22848466132323
17.97365420606513
18.77939895096995
19.65330054489472
20.58720662414906
21.55911950883336
22.53841023608724
23.49332366124583
24.39893873762938
25.24330488492342
26.02982792869379
26.77517182224332
27.50341659629173
28.23823104596793
28.99507951200441
29.77520664965155
30.56266684597763
31.32513269927802
32.01861879971668
32.59554777727135
33.01476110300115
33.25128240625956
33.30326196401046
33.1940086973568
32.96838016402809
32.68445118811155
32.4025288547943
32.17389824220888
32.03140382288481
31.98346302598294
32.01253211078684
32.07838120975426
32.12574506890968
32.09501929324573
31.93381673211123
31.6067387389328
31.10106903629544
30.42731667398503
29.61507237948436
28.70574522212072
27.74408256313614
26.77017212354855
25.81325864128261
24.88833623446555
23.99604547697666
23.12584005029992
22.261700296003
21.38896857328657
20.50043201543914
19.59993132713321
18.70261550146588
17.83208943087247
17.01552114685658
16.27801744655322
15.6374169605052
15.10039566814599
14.66056094820804
14.29896655201401
13.98712695426294
13.69212274754879
13.3828250423606
13.03582222966028
12.63960764449408
12.19611228413783
11.71948847698871
11.23271579005605
10.76285599227085
10.33574284304373
9.970835844017481
9.677016904631014
9.450136642513726
9.272944341248234
9.117604590870695
8.950380410937166
8.737446105631179
8.450490121807416
8.070969837031166
7.592442427957399
7.020941389504829
6.373627588740994
5.67598051154598
4.957874087177969
4.24911626645723
3.575260591206124
2.95451772279555
2.396355470349298
1.90193731927097
1.46603912592222
1.079710893250172
0.7328950765607057
0.416453196539501
0.1233705805606557
-0.1509024398090166
-0.4089496607373064
-0.652596826181537
-0.8844857788310315
-1.109503238641231
-1.335557874799258
-1.573366066856538
-1.835178792859479
-2.132715822067617
-2.474859516043696
-2.865742672203981
-3.303697973944534
-3.781264687533527
-4.286251557753607
-4.803734061970329
-5.318688405679495
-5.818733808180443
-6.296336931640704
-6.749924938404095
-7.183594782427204
-7.605421877900367
-8.024727336758875
-8.448967667610924
-8.881011458444295
-9.317406649883662
-9.747952189853699
-10.15664213632935
-10.52385131421955
-10.82938311000622
-11.05574750365278
-11.19094762149924
-11.23018141202008
-11.17612851811146
-11.03782669396166
-10.82851534392043
-10.56312546424507
-10.25615810864721
-9.920470755654781
-9.567142325937068
-9.206310804782703
-8.848697842119499
-8.507367052030682
-8.199122128806165
-7.944949365767936
-7.769087266594235
-7.696613641646968
-7.749834080378069
-7.944175721185089
-8.284575791208235
-8.763313025704418
-9.359847756914784
-10.04274213266221
-10.77336522303754
-11.51086162352406
-12.21766079771671
-12.86462814434907
-13.43492274960848
-13.92579282902258
-14.34789064258189
-14.72219511850182
-15.07521256531901
-15.43358440436033
-15.81933759502
-16.24672344640193
-16.72111341747232
-17.23999657652413
-17.79577886952406
-18.37973165765789
-18.98613222353455
-19.6155476834162
-20.27638821978061
-20.98422662297097
-21.75889352370535
-22.61994867427657
-23.58162250951377
-24.64848743693579
-25.81288018885695
-27.05463542076667
-28.343236456139
-29.64207623227061
-30.91409176723965
-32.12768000873432
-33.2616891580526
-34.30843194314576
-35.27401235689516
-36.17577551634395
-37.03735438212984
-37.88242128445898
-38.72858810076374
-39.58280573587987
-40.43921379186774
-41.27987862114461
-42.07829233033038
-42.80491911057115
-43.43363070540748
-43.94771500453054
-44.34423216472457
-44.63574849317703
-44.84892898928088
-45.02013944390166
-45.18894517150924
-45.39091399332231
-45.65124681990461
-45.98050635968926
-46.37324199721539
-46.80971638225188
-47.26031324918459
-47.69169113106062
-48.0734453830124
-48.38394255160118
-48.61409917850806
-48.76826413183021
-48.86203121550281
-48.91757555346153
-48.95769543734835
-48.99996862918994
-49.0523036622823
-49.11078414947421
-49.16016300753574
-49.17678249987297
-49.13321945722126
-49.00364725491628
-48.76875381633358
-48.41910155159427
-47.95615674274953
-47.39083318067087
-46.74008273597568
-46.02255929399545
-45.25453593669116
-44.44709067451037
-43.60518328348887
-42.72871650148006
-41.81515113030341
-40.86289103972708
-39.87452118981339
-38.85901472653461
-37.83222190109065
-36.81537268220896
-35.83191272739935
-34.90351695091545
-34.04634110790788
-33.26843384262902
-32.56889836765099
-31.93900603846517
-31.36502771736973
-30.83209752202285
-30.32813383472683
-29.84684259467629
-29.38905755199651
-28.96203610564799
-28.57681785806893
-28.24431006658637
-27.97117755148285
-27.7566610656549
-27.59112534507302
-27.45666795453319
-27.32969412815149
-27.18498783568724
-27.00046328606985
-26.76156305354592
-26.46428180208651
-26.11602578505493
-25.73393055474134
-25.34084481857936
-24.95984097676524
-24.60856706273906
-24.29476963611375
-24.01391457603315
-23.74927838112604
-23.47440368426156
-23.15742887201281
-22.76647221381522
-22.27503219717086
-21.66633771993415
-20.93576029476834
-20.09079214269826
-19.14869634515203
-18.13260797787244
-17.06730891762403
-15.97586812531084
-14.87788466973871
-13.78950099572435
-12.72491843392774
-11.69885161386216
-10.72913648978229
-9.838610240340435
-9.055497331578735
-8.411852030943999
-7.940063912571365
-7.667982875328454
-7.613741513779806
-7.781598833887258
-8.159902290304935
-8.721653242441695
-9.42751208242645
-10.23066207684098
-11.08272838269779
-11.93977869696734
-12.76734532736364
-13.54353214978774
-14.25961417480976
-14.91802007347581
-15.52814877391531
-16.10101859461169
-16.64407840570249
-17.15742761436196
-17.63222378087231
-18.05147456490669
-18.39295067263037
-18.63361344161795
-18.75465119124194
-18.74604761041471
-18.60969096656327
-18.36034395126505
-18.02421914266386
-17.63540108564882
-17.23087704805249
-16.845313239043
-16.50673400183841
-16.2339116654416
-16.03578288029595
-15.91280309787392
-15.85984451456075
-15.86995213807945
-15.93805347219298
-16.06370200012179
-16.25214299157322
-16.51335479942585
-16.85919885878291
-17.29934394930319
-17.83703544131065
-18.4658461137915
-19.1682390435674
-19.91630623663197
-20.67464610876669
-21.4050154406556
-22.07203814110424
-22.64893012436507
-23.12207990472352
-23.49347819922455
-23.7803716701564
-24.01207911433426
-24.22457228894515
-24.45398734143154
-24.7304556046801
-25.0734490670664
-25.48939513368273
-25.97185086402411
-26.50409484487981
-27.06355314876516
-27.6270912184705
-28.17602115666159
-28.69974536290739
-29.19724899948347
-29.67614338130753
-30.14958928239921
-30.63200004070454
-31.13469444287737
-31.66255542433582
-32.2124026966866
-32.77338544435843
-33.32927133532694
-33.86205295548793
-34.35595868878794
-34.80088841884437
-35.19446019515522
-35.54214986581452
-35.85541961858589
-36.14825183941647
-36.4329762368978
-36.71647633877229
-36.99771481614025
-37.26716965749069
-37.50837564261742
-37.70132268174727
-37.82699378422056
-37.87200618984835
-37.83229499313093
-37.71499007295323
-37.53796817212902
-37.32700385516166
-37.11099098911283
-36.91621178493335
-36.76087583562168
-36.65105669162449
-36.57883178568043
-36.52301926482276
-36.45243553378227
-36.33110575636079
-36.12447591901994
-35.80550247117684
-35.35951977303334
-34.78698170141034
-34.10357389887321
-33.33777020184544
-32.52648182175863
-31.70979489960238
-30.92582697898115
-30.20655308241827
-29.57518065585891
-29.04532011748743
-28.6218186819101
-28.30278835773936
-28.08215675517668
-27.95201743735069
-27.90415243552695
-27.93037172552213
-28.02173745072654
-28.16715691393692
-28.3520379619937
-28.5576376691681
-28.76150456407557
-28.93913732420007
-29.06668725338473
-29.12423255870024
-29.09893285473534
-28.98731187400121
-28.79601855254091
-28.54066945492734
-28.24278929073857
-27.92538031679286
-27.60807061880916
-27.30290734548749
-27.01164969128472
-26.72505064870962
-26.42424831503712
-26.08401284128749
-25.67720222687068
-25.1794929543939
-24.57340266571782
-23.85080275206314
-23.01345919271835
-22.07161236905717
-21.04113787832743
-19.94021391824949
-18.78644686307646
-17.59508948876219
-16.37857251309367
-15.14726429139826
-13.91114647356968
-12.68185258448497
-11.47433775564616
-10.30748402423068
-9.203211895966295
-8.184069592545981
-7.269733192448497
-6.473283536682125
-5.798336711173545
-5.237916242492111
-4.775426908980322
-4.387524411519728
-4.048330881753969
-3.734309474922904
-3.429018489120022
-3.126874716991461
-2.835081839258994
-2.573121501972773
-2.369663186712978
-2.257356582094943
-2.266569027474715
-2.419460770060236
-2.725649453060209
-3.180176369019239
-3.763880405813667
-4.445893915798072
-5.187794373847312
-5.948794396787235
-6.691149411183955
-7.384813576033133
-8.010431576472918
-8.56008710881307
-9.0358011708742
-9.446416692986077
-9.803941942729207
-10.12042977150722
-10.40607899880675
-10.66874577141879
-10.91471450886798
-11.15040915264835
-11.38456978602276
-11.63023554999448
-11.9057923217272
-12.23447595187831
-12.64206702484085
-13.15300977926289
-13.78571719466267
-14.54817705797292
-15.43495566401903
-16.42631672178805
-17.48967176767268
-18.5831874088278
-19.66109549842282
-20.6799593687049
-21.60486066828366
-22.4143544236053
-23.10319222014382
-23.6822061241783
-24.17532230525274
-24.61433446541671
-25.03260276379266
-25.45902558775521
-25.91341782670843
-26.40401372873532
-26.92740090090421
-27.4707902953831
-28.01606709110119
-28.54465481012293
-29.04205956162059
-29.50108722016506
-29.92305388892736
-30.3167845484681
-30.69576453055238
-31.0743053438969
-31.46379518858775
-31.86996239891365
-32.29174154114453
-32.72198660117462
-33.14994651754142
-33.56503506462837
-33.96104020963048
-34.33968755935731
-34.71249692653316
-35.10016454673012
-35.529255537255
-36.02670743392224
-36.61329014566316
-37.29748059124223
-38.07110310695077
-38.90769544853824
-39.76407998538509
-40.58511480702502
-41.31104277214577
-41.88630307865075
-42.26826863120235
-42.4342482274307
-42.38531937769685
-42.14616416632458
-41.76096362019076
-41.28628965173264
-40.78250924581483
-40.30534095755997
-39.89896403208547
-39.59166097739038
-39.39448972798438
-39.30294937251095
-39.30105162720039
-39.36673366385879
-39.47727123774962
-39.61339178265796
-39.76120460851583
-39.91176641388486
-40.05882321621081
-40.1957278433556
-40.31260302680063
-40.39460038598216
-40.42176839191401
-40.37066221059285
-40.21739861851659
-39.94143633527159
-39.52907449099433
-38.97560370269171
-38.2852597062119
-37.46863527645947
-36.53791312931698
-35.50094224634261
-34.35551052369839
-33.08506354008302
-31.65672757288411
-30.02202776480912
-28.12020615042213
-25.88350504120865
-23.24329479641289
-20.13569942301219
-16.50548425211714
-12.30733945443832
-7.504229736793427
-2.063079053283927
4.051453633322701
10.88413269996293
18.49631700607733
26.97236524794372
36.42449543298346
46.99514275454688
58.85574586393448
72.20102098412285
87.23803775976059
104.169645938018
123.1722285464395
144.3687707962311
167.7998713980026
193.3970381252372
220.9636251262886
250.1686150526861
280.5570956927831
311.5788332876229
342.6329819411573
373.1232807311771
402.5149163759987
430.3820810956736
456.4346839437844
480.5150439124125
502.5618205079095
522.5475812566976
540.4045089506212
555.9564496179353
568.8741541962463
578.6657218742494
584.7074574141187
586.3123672762706
582.825481408106
573.7288800377463
558.7358650978335
537.8538675324003
511.401042636302
479.9728475665876
444.3687693531929
405.4992131361314
364.294191610073
321.630290756797
278.2848912926307
234.9197704744635
192.0903102190996
150.2716347755599
109.8901679863954
71.34913328324994
35.03930189228072
1.331633716622068
-29.4444410159163
-57.02727588775526
-81.24247290703988
-102.0082088891918
-119.3256478369973
-133.2588812216949
-143.9109707531028
-151.4024906147714
-155.8576759259072
-157.401261527802
-156.1664180915284
-152.3112549704221
-146.038811833149
-137.6140733982765
-127.3720344345891
-115.7133487149201
-103.0877151353244
-89.96832921143276
-76.82230060939462
-64.08187339148395
-52.1203130497215
-41.23504023286849
-31.63917447519162
-23.46122439398581
-16.75148381589019
-11.49299362629836
-7.614771196883787
-5.005320266253871
-3.525045899930153
-3.016886989729933
-3.315035277693122
-4.251944223925785
-5.664003600310902
-7.396340571566475
-9.307146845528854
-11.27164935559563
-13.18545085170215
-14.966709652476
-16.55666628610309
-17.91834248707774
-19.03367511510916
-19.89970153430702
-20.52455457186048
-20.92394312047293
-21.11857408205305
-21.13273468221324
-20.99404391973734
-20.73412808599901
-20.38965574114207
-20.00291859104733
-19.62114082668544
-19.29400998146528
-19.06948006733186
-18.98850404259446
-19.07975492204332
-19.35544757272569
-19.80912248507085
-20.41586996797139
-21.13510180342885
-21.9156155805699
-22.7022800799646
-23.44326547087756
-24.09653429895856
-24.63441188245118
-25.04546165615815
-25.33352466808317
-25.51446195188809
-25.61160830412445
-25.6510504352267
-25.65763715682446
-25.65230343660044
-25.65098630818695
-25.66511409509967
-25.70329609037665
-25.77349522773076
-25.88479471116499
-26.04796346806881
-26.2743849862924
-26.57347621528345
-26.94930197434639
-27.39742298625481
-27.90296519898856
-28.44055581082969
-28.9763460342958
-29.47196766688358
-29.88993168387862
-30.19962784694128
-30.38280717322544
-30.43736603031953
-30.37846201401779
-30.23647174647551
-30.05199488556826
-29.86882663111413
-29.72628223176619
-29.65231016018144
-29.65855557795667
-29.73812113646023
-29.86634088381978
-30.00443696709887
-30.10545266299505
-30.12142518666729
-30.01050087924285
-29.74269137298096
-29.30327788184067
-28.69347102578441
-27.92862705218426
-27.03481515382627
-26.04467632985664
-24.99338902258841
-23.91532483710605
-22.84173975378626
-21.7996092083925
-20.8114624934455
-19.89583126869282
-19.06776508358146
-18.33886188021411
-17.71648528945362
-17.20227171990219
-16.79047255344091
-16.46687603618349
-16.2089212450234
-15.98727829199149
-15.76881155135477
-15.52056208420028
-15.21417037869002
-14.8299944089384
-14.36011134919378
-13.80948984982914
-13.19490626215397
-12.54164772125944
-11.87862711646409
-11.2330150615373
-10.62561343830637
-10.06788990065147
-9.561063522120055
-9.097153164345405
-8.661590156945138
-8.23679378116763
-7.80595086297836
-7.356182035468362
-6.88039105074701
-6.377389524300939
-5.850347577036635
-5.304165122023207
-4.742769236931067
-4.167359801206333
-3.576206522490858
-2.965995435840879
-2.334252355423911
-1.682162972241357
-1.017071707329822
-0.3539611476291025
0.284692797814336
0.871054630806229
1.37601065513114
1.774621071888
2.051813011589676
2.206865326275
2.255410596152416
2.228345352630594
2.167870311300915
2.121502899466493
2.135180861862076
2.246612423711912
2.479946215861819
2.842651612276939
3.32519457197481
3.903644295999499
4.544733002413413
5.212209865584271
5.872889351991433
6.500920939342918
7.079495686206585
7.600069228653762
8.059801390483017
8.458159989423784
8.793632641049813
9.061370292216578
9.25238941138185
9.354679051855166
9.356168358609946
9.248982319870958
9.033846338607457
8.723199777124336
8.341845509977443
7.924745727062151
7.512452284527359
7.145215803616747
6.856960967283301
6.67021084520806
6.592838053068907
6.617242563830141
6.722197024633918
6.877160135248367
7.04833384562153
7.205215959510567
7.326134945146094
7.401503492033299
7.434238848033332
7.437601018967671
7.4312372185011
7.436413996109726
7.471402216053783
7.547876355974173
7.669011894400265
7.829683961559593
8.018769084942315
8.223031927837097
8.431544377061257
8.639306127293441
8.848969116805419
9.07025131084469
9.317378822931556
9.605366308978002
9.946074231032275
10.34491073015765
10.798884647413
11.29647739420251
11.81948471376113
12.34659164449448
12.85797992339385
13.33981000015041
13.78723373455892
14.20493527214147
14.604991493366
15.00267734734341
15.4113313880946
15.83747342962226
16.27719058864912
16.71453218659596
17.1223310388529
17.46550381354831
17.70646286093762
17.81177978206747
17.75876421029257
17.54042622510385
17.16763224395963
16.66806633701338
16.08246266864788
15.45910532951179
14.84772961234498
14.29384441557754
13.83427208467263
13.49445279982923
13.28781620819568
13.21723695396124
13.27817851838104
13.46263492065976
13.76267231280942
14.17254365967419
14.68896974587408
15.30987518569192
16.03228264418372
16.85013949327928
17.75271980141328
18.72404570019813
19.74356634700681
20.78812832526394
21.83503121312297
22.86563542963054
23.8686268673041
24.84187741837651
25.79212686032632
26.73241312514812
27.67792271596973
28.64134719334297
29.62882454403239
30.63725908534346
31.65344428281697
32.65509365332048
33.61363990289556
34.49841733064108
35.28152494573906
35.94233634032685
36.47050486194335
36.86663829512548
37.1405389492102
37.30766337650932
37.38488548907512
37.3866390942782
37.32219245445748
37.19438677507493
36.99985015750327
36.73053006366688
36.37626063465512
35.92787865045534
35.38015533252484
34.73371370897506
33.99534515627076
33.17668742863629
32.29179073562011
31.35438728847899
30.37561496970631
29.36264649737084
28.31834401079885
27.24185453780886
26.12999313842942
24.97921569125651
23.7878720942789
22.55827713272368
21.29806706891599
20.02044966403026
18.74328304642668
17.48725923096812
16.27365211689576
15.12207399211252
14.0485353332495
13.06394419305331
12.17312125740173
11.37444243079349
10.66024307393755
10.01802233172176
9.432273509657511
8.88655545463472
8.365352552519518
7.855381142250816
7.346193410843029
6.830095051249137
6.301487366116604
5.755785464559018
5.188097052849992
4.591908314827149
3.958100089659535
3.274637114945494
2.527156064186394
1.700415605349982
0.7802736873146918
-0.244311047349353
-1.37971977617016
-2.626851083964526
-3.981147516669401
-5.433444183456097
-6.97150441836621
-8.582004199800274
-10.25261718678208
-11.97374292949993
-13.73936525077226
-15.5466282318324
-17.39402848085884
-19.27854648819872
-21.19238096834098
-23.12008442817414
-25.0368437510689
-26.90847288559945
-28.6934060405722
-30.34660797162363
-31.82492529043838
-33.09308448649119
-34.12932880824733
-34.92958699871427
-35.5091701274765
-35.90139449526279
-36.15317033758171
-36.31827231043082
-36.44951938651155
-36.5913319914282
-36.77407359638169
-37.01123869247252
-37.29997452311139
-37.62473808861665
-37.96325456056532
-38.29347596873587
-38.59999784038479
-38.87845732251076
-39.13688435614867
-39.39373157266267
-39.67313377013431
-39.99860012658258
-40.38667209605339
-40.84204425327028
-41.35528812127961
-41.90373604580468
-42.455398033749
-42.97512878579607
-43.43173092742103
-43.80436415613001
-44.08667376062186
-44.28756192461719
-44.42839414983221
-44.53736335275824
-44.64243201863231
-44.76457388166871
-44.91291445726388
-45.08289510656744
-45.25787913653913
-45.41383962808052
-45.52608796113803
-45.57652693128997
-45.55969816550711
-45.48604122857223
-45.38138261506829
-45.28261942769267
-45.23054106846606
-45.26142404163057
-45.39927858981382
-45.6504329420617
-46.0016114129873
-46.42191023665949
-46.86825014031801
-47.29317340716229
-47.65337148494677
-47.91711797900572
-48.06893475690767
-48.11043682543028
-48.05727727572912
-47.93311056925089
-47.76217209173214
-47.56228311771115
-47.3398717571547
-47.08806640426702
-46.78819199110713
-46.41424467886715
-45.9393083811214
-45.34247385849564
-44.61463979432911
-43.76172206215605
-42.80439167028496
-41.77439361493093
-40.70842132616379
-39.64110010986922
-38.59874484783241
-37.59527925239129
-36.6311679465519
-35.6955213589703
-34.77081814997907
-33.83912106876479
-32.88833789538369
-31.91702180345602
-30.93647936295168
-29.96960960625155
-29.04677780179311
-28.19979432135648
-27.4554520989371
-26.83003853414737
-26.3259134972196
-25.9307753800162
-25.61969938135434
-25.35949968780314
-25.11452847655153
-24.85272858347351
-24.5506500774231
-24.19633916559122
-23.78957116190577
-23.33965112936599
-22.86161682259674
-22.37193718147397
-21.88472841762527
-21.40924291043895
-20.9490206008985
-20.50269113237459
-20.06606625512303
-19.6349253672972
-19.20774713677999
-18.78758196692858
-18.38241774094593
-18.00384134536278
-17.66437916113191
-17.37431721053816
-17.13889752111454
-16.95662329862743
-16.81911494691741
-16.71260434789841
-16.62077193514921
-16.52832086095548
-16.4245345007994
-16.3060499746208
-16.17815947056596
-16.05419552628419
-15.95302523026954
-15.89522505847688
-15.89886160801167
-15.97582378301881
-16.12942574988463
-16.3536902737444
-16.63439167797583
-16.95158300016759
-17.28302833278045
-17.60782056697826
-17.90947797518087
-18.17790593764181
-18.40980856017718
-18.60750038334486
-18.77651110964922
-18.92268931887445
-19.04957655308902
-19.15669012537149
-19.23911888213951
-19.28853478266911
-19.29538308134563
-19.25174120085227
-19.15421391998844
-19.00621074962594
-18.81897891940733
-18.61093044524292
-18.4051904202857
-18.22579235230572
-18.09331969244973
-18.02090803606748
-18.01141667084628
-18.05634081265791
-18.13670701764734
-18.22580862919724
-18.29329432821882
-18.30990320812239
-18.25202289087991
-18.10521714194055
-17.86602186761374
-17.5417099151619
-17.14824653275151
-16.70706782457616
-16.24148863531884
-15.77350944155651
-15.32161402015598
-14.89986485461094
-14.5182495459195
-14.18391589034474
-13.9027640979892
-13.68084124720234
-13.52505296411329
-13.44288524600424
-13.4411392114835
-13.52403077412215
-13.69123527459234
-13.93648370870709
-14.24718367845834
-14.60532409306429
-14.98965802128547
-15.37884959421148
-15.75499470344226
-16.10679172414908
-16.43166536418078
-16.73628913312389
-17.03522087081936
-17.34777462097808
-17.69369323981747
-18.08848621039882
-18.53936621622819
-19.04258693581047
-19.58272497448459
-20.13409382323654
-20.66405192575401
-21.13757429414396
-21.52222936482906
-21.79266125834966
-21.93376992544862
-21.94201632518677
-21.82467972765179
-21.59736639324362
-21.28044367786268
-20.89524312682913
-20.46084139378998
-19.99204097387061
-19.49886666601611
-18.9875050360123
-18.46225621479658
-17.9278658420214
-17.39156595323534
-16.86422142914535
-16.36017380464337
-15.89572969944189
-15.48666231408285
-15.14540350610739
-14.8786874759368
-14.6862754246327
-14.56112502102207
-14.49103648038806
-14.461456386849
-14.45883694060451
-14.473816216359
-14.50349893991213
-14.55224534736274
-14.63065531330669
-14.75287886020547
-14.93285725367102
-15.18039871225661
-15.49801567491878
-15.87924116139235
-16.30881101698526
-16.76471469486955
-17.22171066405847
-17.65556600892167
-18.04713349539907
-18.38543355750335
-18.66910057815609
-18.90588256131872
-19.1103539978664
-19.30047941388048
-19.49394017234888
-19.70510832459279
-19.94329344281554
-20.21254339193957
-20.5129105400571
-20.84271478795782
-21.20105382686158
-21.58977146782903
-22.01427495781695
-22.48286661637526
-23.00459582876784
-23.58605944921297
-24.22796470617699
-24.92242201614078
-25.65177963552178
-26.38945884382166
-27.10285162245791
-27.75793118232184
-28.32478259559971
-28.78293434133693
-29.12537154194798
-29.36041403764846
-29.51105042977457
-29.61175529841499
-29.70330638416472
-29.82657044568252
-30.01644799968906
-30.29707119760812
-30.67903669507157
-31.15906945791002
-31.72207220244726
-32.3450124150384
-33.00170638955605
-33.66748054091234
-34.32286768388916
-34.95573813050373
-35.56155087419832
-36.14181195725554
-36.70126304808434
-37.24459951469967
-37.77354955717653
-38.28500876208125
-38.77069252785653
-39.21841006864086
-39.61459605008599
-39.94738138789072
-40.20943683888287
-40.39997423304133
-40.52544258383021
-40.59863827840688
-40.63627949513376
-40.65550700944944
-40.67007192816135
-40.68706004433865
-40.70492540593031
-40.71339959452226
-40.69545633871445
-40.63095828740936
-40.50113611477872
-40.29290706813546
-40.00219002476622
-39.63560726160708
-39.21022629457345
-38.75135328745357
-38.28879423012403
-37.85230680444197
-37.46710258618297
-37.15025307259283
-36.90871586216459
-36.73936499973658
-36.63088253515996
-36.5668709637908
-36.52934704056359
-36.50187234922108
-36.47176928270897
-36.43109022529659
-36.37630001567079
-36.30695315161756
-36.22386955480571
-36.12738141312066
-36.0161821521726
-35.88718159601056
-35.73650124956777
-35.56133050659556
-35.36201474673582
-35.14368518274222
-34.91692215416464
-34.6971674319601
-34.50281867359616
-34.35222112639296
-34.26008298160531
-34.23404543142735
-34.27216154947259
-34.36191217057831
-34.48115217603524
-34.60100923900145
-34.69026875605223
-34.72037816256936
-34.67010463538757
-34.5290349680668
-34.29932873255836
-33.99539082845347
-33.64148708195818
-33.26774199673535
-32.90528165355679
-32.58142158747012
-32.31575883111011
-32.11784233726647
-31.98675555478665
-31.91248322360813
-31.87853683507592
-31.86515719040939
-31.85245023684136
-31.8229010754789
-31.76285749055232
-31.66285522875777
-31.51701102016713
-31.32197072953911
-31.07597189780976
-30.77848830687144
-30.43073038198775
-30.0369843069291
-29.60640414083057
-29.15458716822398
-28.70424541855205
-28.2845026460022
-27.92862831642781
-27.67031648904763
-27.53896544912513
-27.55475005436526
-27.7244492693994
-28.03891234034537
-28.47277054469731
-28.98663038882951
-29.53155370038012
-30.05515114943263
-30.50822944619888
-30.85083499865985
-31.05672962923257
-31.11565464541761
-31.0331132422865
-30.82784874146763
-30.5276478022828
-30.16438852204298
-29.76928843412728
-29.36913885920605
-28.98404277992979
-28.62683055227027
-28.30391770300285
-28.01702652814737
-27.76508800362346
-27.54575119262513
-27.35611187283641
-27.19250239165795
-27.04950507866963
-26.91868135632687
-26.78766700587338
-26.64018387338423
-26.45724664355549
-26.21953912761232
-25.91063688567434
-25.52045668577338
-25.04812844684445
-24.50355273946183
-23.90718323698248
-23.28790497759752
-22.67922644866337
-22.11439463682714
-21.62138065576139
-21.21878023215213
-20.91345440929657
-20.70032569084583
-20.56431908808458
-20.48405076887738
-20.43651776594673
-20.401835291924
-20.36711961524659
-20.32885709887991
-20.2933894675136
-20.27547315585008
-20.29528401213165
-20.37463486027337
-20.53333670440555
-20.7864662496999
-21.1429351420668
-21.60539556657663
-22.17122440239675
-22.83408088300266
-23.58541645481808
-24.41543196511462
-25.31323153313039
-26.26614140868735
-27.25833934474182
-28.26916378199471
-29.2716965751872
-30.23226406283383
-31.11129384819493
-31.86561780107553
-32.45199257585205
-32.83133253751389
-32.97288394524072
-32.85744603140612
-32.47891722702475
-31.84381333862697
-30.96874492336351
-29.87610970321167
-28.58854681492906
-27.12299067049996
-25.48528267172432
-23.66614314232443
-21.63897382672623
-19.35962353827631
-16.7679394702876
-13.79061385382962
-10.34462538134063
-6.340613026953611
-1.685764195288419
3.713913214613511
9.951809800947993
17.11909674274029
25.30290475489121
34.5842012856392
45.03578557928421
56.72127959414305
69.69606536229165
84.01071848958655
99.71673128290224
116.8733565553862
135.5533657534915
155.844585297822
177.8436135918867
201.6387326000339
227.2812244939344
254.747850106919
283.9009576193162
314.4550780112967
345.9590466595012
377.8007272178228
409.2378239595066
439.4535200523125
467.6303801002153
493.0310542549743
515.0707545358378
533.3653340533093
547.7418656146926
558.2070160040447
564.880201344177
567.9085532480022
567.3849714320069
563.2885065683063
555.4603744469026
543.6213254743238
527.4277850892994
506.5560029731521
480.7970451197839
450.1421642403008
414.8387316477161
375.402834978029
332.5861192788072
287.3077248268247
240.5707586122464
193.3828570080345
146.6940625270667
101.3574861339402
58.11232608970185
17.5848065496492
-19.70031010989007
-53.3064301095074
-82.87804028446035
-108.1446733570458
-128.9358343100344
-145.2012734384767
-157.0272381405734
-164.6397101382294
-168.3902378620094
-168.7261212346393
-166.1510997096955
-161.1839588409998
-154.3215073353113
-146.0106710403126
-136.6325978570686
-126.4995218324792
-115.8627245573888
-104.927792710961
-93.87220390901453
-82.86051133038282
-72.05392940816533
-61.61329415227998
-51.69631540569158
-42.45111629156477
-34.00815908826558
-26.47220736200874
-19.91551656995945
-14.37315926923252
-9.841098493443935
-6.277217034045735
-3.60513413156012
-1.720444826615569
-0.4989457625668512
0.1937113892346153
0.4917340435444444
0.5192760303169001
0.3819353211825881
0.1605722063085034
-0.09185220303797861
-0.3500439066682282
-0.61283798676468
-0.8969063588506494
-1.228609963997033
-1.635164419578501
-2.136532949518471
-2.739537403995393
-3.435344055667604
-4.200709184672013
-5.002479692411256
-5.804212398732601
-6.573496253336152
-7.288529541894508
-7.942689733347416
-8.546248857287194
-9.124917661977658
-9.715411868265763
-10.35873801838128
-11.09242735705691
-11.94332479372635
-12.92246352745016
-14.02295564449546
-15.2210210475151
-16.47964421170474
-17.75397270392119
-18.99735297300176
-20.16687029487042
-21.22749961658774
-22.15436196286808
-22.93293794719447
-23.55743507493375
-24.02792754851619
-24.34725848810259
-24.51873035627144
-24.54521974525302
-24.42979105522099
-24.17745917158469
-23.79750947058914
-23.30563133782229
-22.72510965221947
-22.08653776599488
-21.42585995698724
-20.78085956770865
-20.18650403533298
-19.66991778655648
-19.24604911110887
-18.91506599685962
-18.66209327727132
-18.45933165576607
-18.27015435326098
-18.05450192839928
-17.77471187120294
-17.40085625377458
-16.91478408171168
-16.31231024416054
-15.60326556194669
-14.80945440602217
-13.96099551241189
-13.09189893788719
-12.23581873026142
-11.42267053024288
-10.67642385726168
-10.01408305462519
-9.445686035283371
-8.97502788447296
-8.600771462048478
-8.317639222500365
-8.117417819425611
-7.989544652530997
-7.921199824012645
-7.897134775113026
-7.899736291460904
-7.909803640365915
-7.908197353551223
-7.878139760152132
-7.807720647580707
-7.692095776578594
-7.534894606660488
-7.348470156241983
-7.152812370882847
-6.973129936578759
-6.836271777623748
-6.766405097503613
-6.780704381740801
-6.886025945598802
-7.077401147693726
-7.338695851426683
-7.645232646222475
-7.967794122464653
-8.277232743117603
-8.548836735160679
-8.765660876157604
-8.920249944505724
-9.014481479365662
-9.057563266543777
-9.06258135573722
-9.04240819472766
-9.006048698251503
-8.95637957548152
-8.889739108939514
-8.797252166116445
-8.667397983962282
-8.489152005147421
-8.254955874849342
-7.962810708992889
-7.617001978949769
-7.227272617036561
-6.806565879307298
-6.367790411742047
-5.920430264264424
-5.468041689034014
-5.007498332608928
-4.530280940943671
-4.025467653810323
-3.483660408193024
-2.900926624231348
-2.281860257104992
-1.641046098245312
-1.002519222775477
-0.3971457602813375
0.1418310755595109
0.5844490496486286
0.9098015220921019
1.11056593304422
1.195126980779182
1.18680279236839
1.120460672980832
1.037354972449036
0.9792607315876376
0.982993693481452
1.076242538404999
1.275340442826719
1.58527494894356
2.001897786596629
2.515843982743833
3.117116469583352
3.798939093814167
4.559668704676938
5.402272239107351
6.331717181914143
7.351194411944064
8.458302665401309
9.64227881239967
10.88311676996119
12.15301106706963
13.42008609497657
14.653895311622
15.83166330231425
16.94375370344038
17.99667943731476
19.01245055114869
20.02411457837548
21.06848122924589
22.17772435411308
23.37169467084173
24.65253361921997
26.00271343214099
27.38701125542743
28.75823252895576
30.065795168656
31.26559047829392
32.3289699844561
33.24860342762378
34.03962286448355
34.73579116038152
35.38181617691898
36.02377852943087
36.69979992852081
37.43277282193151
38.22643993065112
39.06546481366787
39.91942323016296
40.74990209350634
41.51915622414888
42.19820552015198
42.77219745108219
43.24158471648721
43.61900247195925
43.92305355705647
44.17094430141567
44.37193344951434
44.52310380117825
44.60832922816675
44.6006687922225
44.46783268250041
44.17979109947486
43.71700705217193
43.07731815619741
42.27952111434442
41.3624839802082
40.37992151534613
39.39219783352863
38.45714199551627
37.62180954241636
36.91664564058485
36.35287434332397
35.92333407214431
35.60646706974551
35.37269363506629
35.1918956027149
35.04031070700589
34.90511512235472
34.78558748953754
34.69083159544939
34.63505120446771
34.63188158823747
34.68924954758555
34.80587211411613
34.97002963248849
35.16078921608078
35.35144109119546
35.51450247598856
35.62722321569794
35.67621108760243
35.65983661499414
35.58766147464591
35.47709579210466
35.34834833945908
35.21910112512401
35.10019693387852
34.99320029075142
34.89020854570117
34.77587574795388
34.63127594716475
34.43891616227585
34.18788895162611
33.87792483844108
33.52117543222298
33.14109016676479
32.76861133601297
32.43668987952936
32.17447007850775
32.00237110431058
31.92889203344553
31.94950362153643
32.04761757196575
32.19736721723405
32.36771281084939
32.52713888177806
32.64799827358105
32.70955095247129
32.69909389678742
32.61119808559997
32.44564571854259
32.20492292524055
31.8920251654727
31.50899963347931
31.05628725216382
30.53272614220591
29.93606309070598
29.26384402217622
28.51448983131827
27.6882317403106
26.78752457748186
25.81670932254275
24.78102207593573
23.68534442725909
22.53318676085178
21.32626443783337
20.06475005934666
18.74801964753282
17.37561259561829
15.94820537789424
14.468516534838
12.94208919124998
11.37783546819689
9.78816829068737
8.188585322134902
6.596706547844212
5.030906879219718
3.508749812155116
2.045415179143689
0.6522626838372779
-0.6643651693856618
-1.903984703984569
-3.072294500903144
-4.18079668498687
-5.245592980507642
-6.285394188455109
-7.318996694477975
-8.362645361710069
-9.427746518442595
-10.51933443636772
-11.63558685841213
-12.76854969511866
-13.90604388326671
-15.03448575516596
-16.14212083900136
-17.2220316110852
-18.27426394769081
-19.30653234131559
-20.33322742194848
-21.37283132941672
-22.44423436288221
-23.56271510660768
-24.73643711840534
-25.96423857719974
-27.23527415123782
-28.5307145102601
-29.82724780898378
-31.10168026579307
-32.33563972961514
-33.51929785214845
-34.65315025648614
-35.74725989413876
-36.8179536770567
-37.88261918707123
-38.95376973994956
-40.03377549936834
-41.11155652043335
-42.16215862042744
-43.14955083413543
-44.0322685781639
-44.77084274966586
-45.33549281965146
-45.7124143965228
-45.90719005721022
-45.94442161661548
-45.86354310994896
-45.71168584937621
-45.53514689747054
-45.37128371836883
-45.24251046909482
-45.1536034137778
-45.09282617305879
-45.03655377412925
-44.95629219549983
-44.82646371740432
-44.63115969771459
-44.36829006306425
-44.05019781611354
-43.70073327233556
-43.34969815934309
-43.02616993315205
-42.75236823382401
-42.53949127750551
-42.38646106265637
-42.28184085215916
-42.20840494845346
-42.14916419300348
-42.09330310620694
-42.04051180614159
-42.00255268080527
-42.00156435896148
-42.0654582009454
-42.22153102631651
-42.48983802118821
-42.87786889100454
-43.37775710458661
-43.96674850530403
-44.61098637428722
-45.27189435914755
-45.91378601390437
-46.51102592552445
-47.05313657551051
-47.54662809096012
-48.01301093011642
-48.4833364809765
-48.99043680174441
-49.56054373358769
-50.2060693090707
-50.9210848079119
-51.68052393715752
-52.4433913487268
-53.15938755853485
-53.77761254751004
-54.25558617580771
-54.56674427139347
-54.70481971921155
-54.68414068784428
-54.53580491025085
-54.30064894139339
-54.02062184813392
-53.73044377213076
-53.45129477393935
-53.18781056938271
-52.92892717434201
-52.6522476130714
-52.33083055005476
-51.94080505481202
-51.46804097968554
-50.91227946556739
-50.2877109637548
-49.61989416220138
-48.93984677378772
-48.27679741877628
-47.65132332035136
-47.07044136454535
-46.52576273826647
-45.99514241031368
-45.44746694070378
-44.84951737521615
-44.17338355667511
-43.40275792447898
-42.53664862732215
-41.58966070466617
-40.5888765708755
-39.56821828068718
-38.56171046414524
-37.59719115309514
-36.69181198894898
-35.85023506154726
-35.06582733001175
-34.3244561246138
-33.6098821727745
-32.90940435698733
-32.21838329133372
-31.54255454691462
-30.89762485669608
-30.30639083501768
-29.79425388610981
-29.38430705249931
-29.09313071143902
-28.92819055115879
-28.8873833097997
-28.96081540960702
-29.13434607946779
-29.39394594955957
-29.72969836580192
-30.13834345599757
-30.62359609471046
-31.19402586282256
-31.85895273607311
-32.62335423757619
-33.48301420097135
-34.42106781776664
-35.40682998109098
-36.39740742525846
-37.3420651115621
-38.18867761429932
-38.89105433264289
-39.41568876584162
-39.74656488044923
-39.88699418255104
-39.85803398442619
-39.69377052333992
-39.43443458419804
-39.11875068544665
-38.77702995777781
-38.42634091702276
-38.06869186534336
-37.69256146253039
-37.27738981535295
-36.79997757187294
-36.2413285166116
-35.59238785477049
-34.85738763116562
-34.05410175852072
-33.21109918585562
-32.36280232932473
-31.5435907851496
-30.78227878527021
-30.09811023259834
-29.49905783492797
-28.98272653808084
-28.53957318394152
-28.15758147045077
-27.82714846582763
-27.54486021852072
-27.31510090427289
-27.14902651433105
-27.06118038982641
-27.06466981740746
-27.16615518348963
-27.3618849596639
-27.63573575320245
-27.95980799312346
-28.29763410218963
-28.60949852695635
-28.85885682652624
-29.01853240211534
-29.07534920896469
-29.03214433425022
-28.90667525743006
-28.72766594422573
-28.52889083016308
-28.34257743238479
-28.19345909259937
-28.09459681854862
-28.04571141289714
-28.03427220279887
-28.0390192094203
-28.03507473154986
-27.99947382023484
-27.91587577754696
-27.77742450215957
-27.5871993930359
-27.3563386300703
-27.10050965150422
-26.8357517045449
-26.57475966533591
-26.3244875698728
-26.08562713440728
-25.85409500477094
-25.62416157134293
-25.39239583000322
-25.16134764459458
-24.94190377847825
-24.75352420167924
-24.62206638934415
-24.57554115241229
-24.63871278284
-24.82776275728101
-25.14621121544094
-25.58301334110964
-26.11334727635971
-26.70213707584479
-27.30980985457503
-27.89925875675451
-28.44263333555222
-28.92651320095617
-29.35427702052758
-29.74505175580136
-30.12940690498226
-30.54271586285941
-31.01760605602337
-31.57704434580238
-32.22939393064541
-32.96636276150913
-33.76423655040576
-34.58818512557212
-35.39881002607702
-36.15958749084477
-36.84359209250233
-37.43798308548413
-37.94524948455318
-38.38102950269104
-38.76918055617792
-39.1354008387499
-39.50093836595223
-39.87778290863717
-40.26633888080218
-40.65602300207407
-41.028584258468
-41.36331874639555
-41.64289608592028
-41.85832644374821
-42.01174062281242
-42.11616533394174
-42.19226358601635
-42.26283255350437
-42.34643469584654
-42.45172662168706
-42.57385614657307
-42.69383062045118
-42.78112277071986
-42.79907594054637
-42.71204815749776
-42.492830322884
-42.12874793095078
-41.62505323019374
-41.00477774922812
-40.30505520368401
-39.57077810136925
-38.84702729807703
-38.17187550936259
-37.57097287184197
-37.05490482637737
-36.61973477683006
-36.25045926351668
-35.92646598648898
-35.62767143742228
-35.33989541494312
-35.05821859877605
-34.78758171793417
-34.5406351750994
-34.33359216455885
-34.18130772632058
-34.09288421175567
-34.06886721116912
-34.10069932783451
-34.17263041408127
-34.26576117633122
-34.36337477962086
-34.45630131714496
-34.54688959544155
-34.65034651316481
-34.79279563266059
-35.00627592126531
-35.32174696235199
-35.76168137143939
-36.33387938199898
-37.0278216764017
-37.81436270432462
-38.64897201439598
-39.47809134631487
-40.24754451983141
-40.91142734123287
-41.43965693698932
-41.82251826224077
-42.07117804174156
-42.21411226025707
-42.29038777634964
-42.34141097626492
-42.40294222800548
-42.49893892160623
-42.63830504597668
-42.81501238661808
-43.01137763300966
-43.20362555856281
-43.36837128529822
-43.48842462141594
-43.55645715336492
-43.57563790003169
-43.55722411248852
-43.51597861784202
-43.46483777913675
-43.41032930190148
-43.34993697495691
-43.27211752765887
-43.15908763114584
-42.99185422397077
-42.75637476444548
-42.44936445297577
-42.08220924714556
-41.68174976339932
-41.28739412090787
-40.94496955643373
-40.69861598353386
-40.58252371027623
-40.61429001188898
-40.79124488464809
-41.09049317437712
-41.47274321739692
-41.88927138276674
-42.29071900101907
-42.63599645235844
-42.89947634454638
-43.07494568354571
-43.175479356552
-43.22937323492738
-43.27322469839914
-43.3438366825739
-43.47070628958913
-43.67054840497708
-43.94479842286458
-44.28044208372255
-44.65386423056528
-45.03677237016692
-45.40276746654639
-45.7329247251083
-46.01892734855981
-46.262928179113
-46.47426313628938
-46.66406165515416
-46.83933850006014
-46.99817175543613
-47.12720003774947
-47.20212254019511
-47.1912706097473
-47.06167111938328
-46.78642036362999
-46.35176447292938
-45.7621614951674
-45.0418949452631
-44.23256421154901
-43.38683008443842
-42.55977187157714
-41.79975284707737
-41.14066898612641
-40.59701940868487
-40.16261860670714
-39.81309626976181
-39.51163958355493
-39.2168089254859
-38.89083260523775
-38.50666608134197
-38.05236478030346
-37.53198853935566
-36.96317527244331
-36.37235328975769
-35.78898751184335
-35.24020405524066
-34.74679716997026
-34.32120677239136
-33.96761473668073
-33.68382301682863
-33.46413262495221
-33.30218729061592
-33.19275406775334
-33.13170488651743
-33.1140314993529
-33.13043617368086
-33.1635968282468
-33.18534363010582
-33.15569230669885
-33.02418363337249
-32.733496683387
-32.22487532281018
-31.44450236823752
-30.34963500549022
-28.91319248443839
-27.12562698583883
-24.99333924848876
-22.53360904410183
-19.7668352864264
-16.70750789750856
-13.3555058606182
-9.689044403289024
-5.66013503084126
-1.193023339901574
3.814244602168059
9.485332113447285
15.95881313848917
23.37996550224747
31.89204806420093
41.62767990693076
52.700613826615
65.19808610004671
79.1741845296049
94.64520341017541
111.5884026906127
129.9455596053506
149.6319529217542
170.5500522007405
192.6056475060268
215.7228870973974
239.8537914854594
264.9774093812274
291.0845827207399
318.1471223974527
346.0748052999
374.6683168899155
403.5791124168175
432.2872070759914
460.1053952885631
486.2139712009909
509.7242242642638
529.7627652382364
545.5634292950314
556.5500092342563
562.3922280446974
563.0209470850813
558.597858680428
549.4474744059294
535.9695168876704
518.5534332436346
497.5136829086622
473.0578438770021
445.2920327458648
414.260396767584
380.0082023108605
342.6529136711388
302.4457855586447
259.8082358066887
215.3332888150593
169.7525653126306
123.8801626760707
78.55066270947894
34.56653324759658
-7.337089255853646
-46.50969012989864
-82.3887679386853
-114.4953998192043
-142.4287727017301
-165.8659309711624
-184.5707577118397
-198.4124851384758
-207.3896459583287
-211.6516257582001
-211.5086311218553
-207.4232567117438
-199.9822669835398
-189.8530547220591
-177.7327862084578
-164.2986819933729
-150.1662822600963
-135.8602615806354
-121.7999426152852
-108.2991547038403
-95.57769957860879
-83.7799159930684
-72.99517341211454
-63.27579024615486
-54.64962201568874
-47.12670998001197
-40.70111152846461
-35.34987719914876
-31.03116406864258
-27.6830632086979
-25.22416535643584
-23.55626779409369
-22.56897044109277
-22.14536561125656
-22.16778182483921
-22.52268103102806
-23.10424114138561
-23.81665715323789
-24.57553059406584
-25.30879076852661
-25.95747375958543
-26.47650654618791
-26.83547632480863
-27.01921166930387
-27.02784781380711
-26.87591241831412
-26.58993934283386
-26.20433062007557
-25.75569249167742
-25.27650591720646
-24.78942363859834
-24.30345737468601
-23.81286279285943
-23.29892058676604
-22.73428850244079
-22.08919485573359
-21.33840755014076
-20.4676808617868
-19.47835625485301
-18.3890415007211
-17.23384261146978
-16.05743161376093
-14.90807909159241
-13.83029881466799
-12.85868937296805
-12.01400737913283
-11.30183612590182
-10.71372165744537
-10.23033450072936
-9.825932573929295
-9.473135697608516
-9.146912141293525
-8.826842325510668
-8.497194105337373
-8.14504752021715
-7.757416925209979
-7.318692858698942
-6.809541565851707
-6.207770346598535
-5.490977315007965
-4.640377141741843
-3.645038954413732
-2.505706907526158
-1.237319094659275
0.1306056455389186
1.556252266180331
2.990431525595135
4.383341187166586
5.691680614324993
6.884385283452674
7.945639921837719
8.874686603266069
9.682812415995093
10.38841311122146
11.01117639526499
11.56643723430479
12.06075647735762
12.48967754552111
12.83827771481264
13.0845072924631
13.20452451455617
13.17857816278357
12.99580902220197
12.65678380546679
12.1734179297159
11.56672606952722
10.8632329988224
10.09091224302614
9.275432468728075
8.437416399019101
7.591298634442531
6.746094723949142
5.907922462849601
5.083536155878738
4.283684639559337
3.525067862375296
2.830137510532648
2.224735430940156
1.734203245599624
1.378894613098683
1.170019002065771
1.106606308006506
1.174206685321753
1.345728572216918
1.584514608290355
1.849313326948295
2.100279056014229
2.304737359806405
2.441446212119227
2.502528292042086
2.492923277486518
2.427780972694734
2.328514286609689
2.21830303426863
2.11780827079346
2.041785647963409
1.997161774648012
1.982906664183188
1.99165563295328
2.012559913303156
2.03447626473659
2.048569355295371
2.049736302884415
2.03675997105312
2.011481950981253
1.977437181829904
1.938367447316006
1.896949737655477
1.854021141328845
1.80855568108806
1.758563058494077
1.702835065015132
1.643089640908369
1.585761513870096
1.542699525834686
1.530393600377013
1.56785767970788
1.673671144200386
1.862816239877098
2.143897949812187
2.517207948310966
2.973976911770149
3.497054642840729
4.063088807683946
4.645959344590148
5.220812429188332
5.767739700392187
6.274196658828526
6.735670693515604
7.154663910974921
7.538474398609929
7.896430682087136
8.237205616030248
8.566705293635252
8.886883075521075
9.195700887264321
9.488289178685914
9.759059295120949
10.00414324010063
10.22329767533666
10.42053833918816
10.60326226157359
10.78019788262172
10.95889736385204
11.14355117073097
11.33374340029742
11.52449665131078
11.70767698224152
11.87460113961594
12.01948205081399
12.14309408449
12.25577154101118
12.37876749959139
12.54328860244771
12.78714789924465
13.14965679579281
13.66581225385206
14.36093174597201
15.24671621742688
16.31939195392317
17.5602141798713
18.93828991968575
20.41536105041062
21.95179122452372
23.51257042567555
25.07194096326021
26.61552023275258
28.13953879287774
29.64768947070833
31.14668454761432
32.64176183241763
34.13316421797333
35.61425904710753
37.07162819030965
38.48716568718504
39.84186793601331
41.12052517213347
42.31604031124241
43.43191137313034
44.48178994791929
45.4859435420503
46.46550785317456
47.4361130651326
48.40255231065287
49.35574474954426
50.27264690600996
51.11923348402386
51.85622694281756
52.44678207693855
52.8647793893712
53.10190989180293
53.17166210369216
53.10890684434278
52.96494493635576
52.7991704705025
52.66934039939167
52.62256283434365
52.68867010188285
52.87697796345534
53.17680758528602
53.56159327129577
53.99581897787861
54.44339875713973
54.87561007417011
55.27660942415218
55.64513993800477
55.99218750490708
56.33558390726906
56.69333821902463
57.07755202161699
57.49030416073913
57.92224028034549
58.35403044170153
58.76038272866011
59.11582321135967
59.40096899265574
59.60769136240904
59.74163147916846
59.82115116320571
59.87286348741532
59.92496907676254
60.00024369618972
60.11046349081828
60.2534601213164
60.41323478871905
60.56294938285273
60.67021605025369
60.70378372773538
60.6403902572459
60.47032086059869
60.20030525680596
59.8529493780383
59.46284168536283
59.07042833173092
58.71529682348156
58.43044868972165
58.2385831592544
58.15068894766112
58.16670743144909
58.2777933052078
58.46958300402818
58.72571883215867
59.03072009867751
59.37134216261578
59.73597073833253
60.11229310165063
60.48416903996966
60.82895833748096
61.11639290957173
61.30950824351766
61.36748545905328
61.24982288329219
60.92110417669496
60.355579323609
59.54072660533334
58.47900847896972
57.18729690589262
55.69394594394904
54.03410589944694
52.24436673635882
50.35797263614754
48.40159239174226
46.39407559562326
44.34704515314307
42.26682720040339
40.15712004799105
38.02180096911124
35.86728526346688
33.70393528792555
31.5462140822771
29.41156976542483
27.31835275332313
25.28330412050234
23.3192240741764
21.43332051994351
19.62650745568
17.89367151615984
16.22473915743893
14.60627746190023
13.02332755863977
11.461193129942
9.906977707229
8.350747251524071
6.786260728380099
5.211261726352546
3.627359738719704
2.039545206540618
0.4553844875129461
-1.116056833809528
-2.665498784910413
-4.184830444926583
-5.668396324271228
-7.113894614994654
-8.522564691974829
-9.898445421906898
-11.24672936934235
-12.57152685030614
-13.87355808077055
-15.14834563613289
-16.38539849660901
-17.56869850622389
-18.67855353407441
-19.69461733483988
-20.59963022488811
-21.38321046955886
-22.04485766077729
-22.59533061662398
-23.05584426691929
-23.45506455321439
-23.82447870204842
-24.1931495095467
-24.58299633486471
-25.00559331277087
-25.46112321626823
-25.93967071864702
-26.42457667426943
-26.89718204160051
-27.34199982429966
-27.75119158788214
-28.12726874148569
-28.48327449896526
-28.84030401796548
-29.22290580340739
-29.65343579830858
-30.1466532852094
-30.70575483059862
-31.32071156873698
-31.96926188551381
-32.62031048247708
-33.23897294161041
-33.79220924805731
-34.25389853375126
-34.60829672782767
-34.85114333244605
-34.98825529283955
-35.03211394373913
-34.99746987227299
-34.89719454823646
-34.73949121837708
-34.5272013354145
-34.25935717388077
-33.93447930085665
-33.55465934787426
-33.12934468600614
-32.67784864331848
-32.2298231628133
-31.8232821494555
-31.50030014638541
-31.30111698704492
-31.25782889428418
-31.38898607627815
-31.69625168394636
-32.16388396584949
-32.76123828271242
-33.44784538593247
-34.18008413075631
-34.91815119437369
-35.63193555199111
-36.30454277919618
-36.93265911193445
-37.52368134894379
-38.09035814667284
-38.64430227452649
-39.18996042602293
-39.72046647289808
-40.21634539049488
-40.64737494369066
-40.97719880565919
-41.16971043206908
-41.19588403025217
-41.03959559791438
-40.70108653368676
-40.19718240179276
-39.55817144810793
-38.82212357818607
-38.02806005349012
-37.20957851592946
-36.39032537448855
-35.58220642935245
-34.78653779506827
-33.99761788801536
-33.20767524601609
-32.41193278950676
-31.6125628065967
-30.82053581860581
-30.05484103180548
-29.33925361237092
-28.69752007787751
-28.14823933892304
-27.70071861479404
-27.35278683178716
-27.09108450979814
-26.89375760984596
-26.73486772479427
-26.58943230882206
-26.43795644500882
-26.26950406345865
-26.08266454407828
-25.88422334869297
-25.68593152091389
-25.50029411522618
-25.33652258464664
-25.19766903285754
-25.07962249965841
-24.9722100457341
-24.86211268811597
-24.7367824133319
-24.58828025239351
-24.41604870601518
-24.22792917296957
-24.03909293024897
-23.86899049950222
-23.73692982719188
-23.65729449323429
-23.6355188229373
-23.66574261711175
-23.73071722742305
-23.80410773170758
-23.85482648035444
-23.85254304260066
-23.77325443852619
-23.60383196061449
-23.34466834650922
-23.00986961419272
-22.62491738670188
-22.2223172635797
-21.83621990162373
-21.49715614440635
-21.2278848755977
-21.04106442782091
-20.93909346951825
-20.91600897292031
-20.96086775936768
-21.06175779889635
-21.20953789191621
-21.40049735822104
-21.63733310171581
-21.92821917529889
-22.28424893498056
-22.7159625343213
-23.22986062263309
-23.82575142273318
-24.49557623818139
-25.2240302745437
-25.99084002251999
-26.7741162421009
-27.55397979419298
-28.3156823996406
-29.05157658522316
-29.76147152584273
-30.4512130588795
-31.129744622363
-31.80529109299994
-32.48151569076204
-33.15452640464894
-33.81149614321556
-34.43135585354111
-34.98748485801801
-35.45176308790084
-35.79907559678311
-36.01141200271578
-36.08086580061499
-36.01099733411179
-35.81627083526343
-35.51966281771774
-35.14894548005139
-34.73242280162565
-34.29500700244172
-33.85548784497848
-33.42559421270953
-33.01092225472924
-32.61321352611681
-32.23315684357242
-31.87294203291261
-31.53798817025049
-31.23743977671884
-30.98323406344376
-30.78786674756502
-30.66134283961103
-30.60804877090827
-30.62436698471076
-30.69778118526479
-30.80794224644125
-30.92964542823053
-31.03708984729705
-31.10846578126937
-31.12993752624824
-31.09827216759488
-31.02156590979038
-30.91779906082454
-30.8113715562474
-30.72823548678674
-30.69058249793289
-30.71218129106373
-30.79539086282331
-30.93056508686699
-31.09799898923275
-31.27192213938535
-31.42560977938124
-31.53655750938951
-31.59071996632253
-31.58496439551362
-31.52720640708445
-31.43420617405922
-31.32756489189019
-31.22887212595729
-31.1551201856361
-31.11542996904864
-31.10982119600504
-31.1302199149474
-31.16329633548118
-31.19432287417775
-31.21111551672841
-31.20715478527732
-31.18311938191367
-31.14638760579827
-31.10858754764613
-31.08183908663752
-31.07470283866398
-31.08893543981032
-31.11798132287706
-31.1477330478271
-31.15948266782583
-31.13434862059243
-31.0580939006399
-30.9252476540512
-30.74163503954977
-30.52467950508393
-30.30122616863883
-30.10318624008565
-29.96186700649818
-29.9021938623521
-29.93805367242917
-30.06975951685855
-30.28420988740326
-30.55770107183183
-30.86070660144638
-31.16354382735474
-31.4417967539266
-31.68049365974385
-31.87623861371339
-32.03685079020423
-32.17862718504194
-32.32195299656492
-32.48638496580003
-32.6864070228328
-32.92885619124559
-33.2126008808909
-33.53045909650109
-33.87273475397244
-34.23137798550031
-34.60370738544214
-34.99472992506672
-35.41729517421465
-35.88972408851672
-36.43118821850305
-37.05578690427294
-37.76669774398849
-38.55183056627521
-39.38215083803042
-40.21332080356679
-40.99057915297998
-41.65602887452609
-42.15701263999075
-42.45411223456608
-42.52737537362285
-42.37958888882074
-42.03588548720965
-41.53971246477955
-40.94599252168832
-40.31288253528866
-39.69374941190955
-39.13085562059311
-38.65181372754236
-38.26917617831856
-37.98278084379151
-37.78395471279441
-37.66046077811633
-37.60103225352957
-37.59843634455856
-37.65035273735128
-37.75795492320462
-37.92274952366558
-38.14270547276418
-38.40887684759864
-38.70361531703719
-39.00109742065298
-39.27027046480635
-39.47962686990378
-39.60274434710272
-39.62339047596208
-39.53906494981987
-39.36206553888804
-39.1175914268738
-38.83906073137278
-38.56153522127006
-38.31464757546147
-38.11656868725402
-37.97035214342805
-37.86350151391187
-37.77087176623965
-37.6602243856819
-37.49920275455492
-37.26230722038923
-36.93651439343292
-36.52441113429696
-36.04415774872974
-35.52627503064387
-35.00799309286101
-34.52644492669643
-34.11218533818151
-33.78438396561256
-33.54863346885505
-33.39766717453795
-33.31455367161772
-33.27741011558453
-33.26448561478947
-33.25850685700351
-33.24935437551691
-33.23449894609572
-33.21719631222785
-33.20306034482547
-33.19607094920786
-33.19519268221487
-33.19261085506994
-33.17419391600715
-33.12220437287208
-33.01965129675659
-32.85524981157734
-32.62783258199546
-32.34915034075046
-32.04423385174736
-31.74892383569953
-31.50481414112604
-31.35252306509619
-31.32465835293884
-31.43993946491338
-31.69971925682006
-32.08768013284054
-32.57281948160136
-33.1151255749814
-33.67280638663636
-34.20968402941511
-34.70135212959848
-35.13887964703914
-35.52929251119733
-35.8927647265196
-36.25721653374718
-36.65158871078826
-37.0992861451131
-37.61316478528826
-38.19303343236988
-38.82602870967089
-39.48956427847135
-40.1560616221325
-40.79839946252635
-41.3949023964263
-41.93274003985116
-42.40894257495854
-42.82887042466542
-43.20270683517899
-43.54108909924407
-43.85119014476167
-44.13440944893618
-44.38638362568211
-44.5993547627901
-44.76624587566651
-44.88536033201424
-44.9645171977795
-45.0235220110942
-45.09409232841775
-45.21680319808147
-45.43531383408961
-45.78889041359571
-46.30476197019026
-46.99197290671075
-47.83814498235314
-48.80999589675277
-49.85765056763837
-50.92194203056639
-51.9433289365052
-52.87083826614691
-53.66944144674206
-54.32445673296929
-54.84207297670677
-55.24592729652717
-55.57059517737896
-55.85353251091684
-56.12726680806847
-56.41348113297387
-56.72012938328329
-57.04194658817197
-57.36389481703362
-57.66648847903685
-57.93163337290338
-58.1474905221648
-58.31098709113097
-58.42712498792893
-58.50515310608331
-58.55262513715699
-58.56897867483863
-58.54039126924096
-58.43735704512835
-58.21578709278954
-57.82158639163514
-57.19783210213775
-56.29311647669422
-55.06935107783969
-53.5072673564856
-51.60807319824893
-49.39041578640214
-46.88288129370032
-44.11333947822965
-41.0971246686632
-37.82620257810498
-34.26120159594247
-30.3276269453991
-25.91682536812582
-20.89146211785597
-15.09459796235079
-8.361024415204119
-0.5293390957802637
8.546667699397522
18.98839932116432
30.88526933457445
44.29035133871666
59.21924842217098
75.65260464349376
93.54252654383113
112.8226982361585
133.4211711280713
155.2738465074125
178.3357422412904
202.5863840080252
228.0253622849039
254.654896212719
282.4487851842605
311.3111745283116
341.0327100711687
371.2541578964868
401.4475011095826
430.9221274717582
458.8596365216679
484.3755255603343
506.6003037840889
524.7675714903459
538.2932147090679
546.8290117889909
550.277303461612
548.7620970355947
542.5639473468859
532.0359676934272
517.5220059502981
499.2951532708171
477.5283085041044
452.3011282468765
423.6401189026971
391.5814883146737
356.241241783603
317.8751250276452
276.9127943376676
233.9566440998557
189.7459165187615
145.0976949479054
100.8424992566888
57.77035687301422
16.59578936942172
-22.05761118298609
-57.65719974734267
-89.7523461230849
-117.9639840371603
-141.9797397599106
-161.5594986208485
-176.5523067521263
-186.9207796395264
-192.7650826858141
-194.33684906696
-192.035482062583
-186.3846481225158
-177.9928056385781
-167.5054674161091
-155.5575464954763
-142.7326204303757
-129.5337461296153
-116.368180780973
-103.5459708377396
-91.28998308118517
-79.75309917200175
-69.03755166946948
-59.21196737910593
-50.32333367820492
-42.40316878643159
-35.4689173324164
-29.52250869875373
-24.54806804835116
-20.5102979114871
-17.35443622761137
-15.00812050535778
-13.3849588974058
-12.38916740325244
-11.9204157312135
-11.87814025545079
-12.16495365725467
-12.68917735964301
-13.36675697843339
-14.12286616424944
-14.89343216850152
-15.62668384572915
-16.2846517285459
-16.84437644120263
-17.29845227074963
-17.65446170901945
-17.93287096325058
-18.16316130568249
-18.37844156703007
-18.60937267434444
-18.87860840131705
-19.19690781141145
-19.56168374775364
-19.9582435437317
-20.36349391518097
-20.7514525980183
-21.09957820192251
-21.39476012844085
-21.63779948302021
-21.84534917239809
-22.04866151350803
-22.28918998831625
-22.61192480464963
-23.05792224453944
-23.65756598067283
-24.42576036196154
-25.35975646243927
-26.439808377848
-27.63238111778231
-28.89522973529143
-30.18340106818932
-31.45505293416072
-32.67593723515002
-33.82160148552038
-34.87695740737556
-35.83367685866416
-36.68650422186062
-37.42974844187115
-38.05498828561431
-38.55060263872382
-38.90325642407615
-39.10099236670295
-39.13720788041743
-39.01461273908204
-38.74819916349185
-38.36626351018895
-37.90875351989547
-37.42283664896411
-36.95643205354335
-36.55110146926972
-36.2358567664751
-36.0231573505247
-35.90786107044993
-35.86930221756632
-35.87605630644303
-35.89243019324288
-35.88542216100927
-35.83082702132707
-35.71725853229019
-35.5472006322027
-35.33487417579858
-35.10155315674275
-34.86960015355022
-34.65665697784465
-34.47118967761553
-34.3101727126456
-34.15922463182081
-33.99498962722885
-33.78909083356675
-33.51271647541382
-33.14085303964597
-32.65527041085677
-32.04563313660293
-31.30864625916314
-30.44580043409523
-29.46071274337718
-28.35705481827828
-27.13772263950787
-25.8054693472182
-24.36481621991587
-22.82470605070934
-21.20114297087367
-19.51903611721442
-17.81256762256147
-16.12358264777825
-14.49785275587787
-12.97966961304124
-11.60587170550741
-10.40070419547173
-9.372675539430936
-8.513987798020263
-7.802511023113697
-7.205822007160895
-6.686532182641586
-6.207970278504993
-5.739262704709881
-5.258936150316102
-4.756361662390508
-4.230774926695725
-3.688268870755195
-3.137809200076929
-2.587582294690796
-2.042691870086651
-1.504601187479841
-0.9721367391607038
-0.4435152146162554
0.08129568439824181
0.5985856582781808
1.099894012856742
1.572443976562004
2.001240441461816
2.372645546807714
2.678667679964996
2.920703274143412
3.111427068587782
3.2740570762239
3.439045670285738
3.638943688132434
3.90253883352121
4.249431302500462
4.686083652327844
5.204130347142753
5.781404514355159
6.385736281478763
6.981028068252573
7.534439837710616
8.023001508717998
8.437991623817272
8.786081760744883
9.087212686122067
9.36996724523525
9.665614058613354
10.00208156409924
10.3990032374623
10.86471597663284
11.39574695687022
11.9789014098921
12.59550862012575
13.22672978354203
13.8583626108176
14.48366573712797
15.10344360407289
15.72360633412225
16.35114974641104
16.98977244183924
17.63626136523963
18.27850930972136
18.89569233612903
19.46078850883695
19.94523041489206
20.32496306534146
20.58657323028275
20.73178194259522
20.77882488294975
20.76012268600236
20.71674730180722
20.69099839588264
20.71869125611536
20.82262260018276
21.00832030344186
21.26276270242899
21.55635452493589
21.84800927473414
22.09258653546489
22.24922256861903
22.2886289828281
22.19761918615984
21.9799874366763
21.65397543254735
21.24738706363648
20.791728672222
20.31665049556053
19.84564313890161
19.39358916078127
18.96648326800807
18.56333866120882
18.17983311390527
17.8126484713201
17.46305902152075
17.13850324952026
16.85163659260628
16.61728562497138
16.4483396811968
16.35177423150667
16.32581565917521
16.35889180940522
16.43061483135847
16.51471686939333
16.58357185925681
16.61356568097922
16.59014687985684
16.5111853245773
16.38759178639366
16.24096751290657
16.09894277678352
15.98941600088219
15.93501916345928
15.9489190924065
16.03264951294404
16.17621187969947
16.36033087246195
16.56048740834567
16.75203455945067
16.91532406503066
17.03958969319338
17.12462769773484
17.18003491308795
17.22252331629235
17.27227290778366
17.34934932930737
17.4709922616371
17.65018372216844
17.89550808148647
18.21209155412776
18.60332300806349
19.07291864092638
19.6266540851503
20.27297253956311
21.02194583717738
21.88268350879627
22.85991049011076
23.95074699030765
25.14265441648502
26.41314526336124
27.73134402392103
29.06106183646784
30.36487005462447
31.60862881519207
32.76582861136367
33.82091186962463
34.77069260303095
35.62333076515448
36.39500785635212
37.10516060982471
37.7715199523502
38.4061457243992
39.01321641563455
39.5887528166862
40.12201801942267
40.59816720730907
41.00166811957598
41.31988373288019
41.54601990609629
41.68060414627939
41.73097355378201
41.70887586018497
41.62694068421669
41.49513978822256
41.31827908012374
41.09511501760912
40.81911078906931
40.48044352723205
40.06874605837827
39.57606346456428
38.99946209094767
38.34266483196912
37.61615053898206
36.83546754500274
36.0180308196858
35.17918695153482
34.32859791264006
33.46788587045808
32.59004707436802
31.68060998207306
30.72014644044369
29.68762122033024
28.56405397352331
27.33594622227668
25.99790639037452
24.5539721730162
23.0173429335988
21.40857612072026
19.75266273488105
18.07563705968797
16.40139266915552
14.74916759083229
13.13186612647293
11.55519771643908
10.01759522327755
8.510914421803815
7.021888192829653
5.534193097184629
4.030843527051142
2.496538145604563
0.9195990929873297
-0.7067329859841944
-2.383717082916719
-4.107194092734215
-5.86826958496971
-7.654561850399723
-9.451923777811285
-11.24636483160844
-13.02570592619312
-14.7804640788927
-16.50366234436921
-18.18962492691524
-19.83218065653736
-21.42289713395583
-22.94993749066453
-24.39792588875557
-25.74894258495614
-26.98454385148317
-28.08854270231118
-29.05014032235117
-29.86681371445504
-30.54620520515575
-31.10629250651939
-31.57345921365526
-31.97866113057973
-32.35245962187471
-32.72002663720778
-33.09721119491567
-33.48846056301928
-33.8869624360184
-34.27694466759381
-34.63770365835383
-34.94864368240716
-35.1943833986974
-35.36885837836142
-35.4774422243818
-35.5365245779763
-35.57064900175446
-35.60797609293608
-35.67522836534232
-35.7932835857414
-35.97429793555393
-36.22082187980627
-36.52694281988756
-36.8811189475966
-37.27007904541516
-37.68293214030766
-38.11448152094128
-38.56679913612757
-39.04851065924691
-39.57190452067385
-40.14864790957326
-40.78528399763897
-41.47967932874275
-42.21927431857301
-42.98153493900843
-43.7365548248102
-44.45139609382315
-45.09547695142126
-45.64605139037759
-46.09260924292195
-46.43903661383651
-46.70278227252366
-46.91101753445459
-47.0945846961033
-47.28109782750646
-47.48872127429073
-47.72192279669533
-47.970019125767
-48.20877154172275
-48.40477172528116
-48.52190385223135
-48.52873960712058
-48.40537777597171
-48.14818118150546
-47.77125361839508
-47.30427596624145
-46.78722157655718
-46.26319239903957
-45.77095126051094
-45.33863624718305
-44.97975620995476
-44.69206150434334
-44.45937236455838
-44.25594233681213
-44.05243388463003
-43.82217855174626
-43.54626810240909
-43.21631034523426
-42.83433652931927
-42.41014544843816
-41.95703081257645
-41.48714965776872
-41.00770659569697
-40.51877956056401
-40.01317790226906
-39.47830745447131
-38.89962513058349
-38.26488873345636
-37.56812348034345
-36.81219554775254
-36.009214460302
-35.17861303682579
-34.34344313001889
-33.52590715896839
-32.74325952512618
-32.00498854863437
-31.31179262485734
-30.65645113923
-30.0263310481646
-29.40696831116072
-28.78592092556557
-28.15596244096935
-27.51678004479539
-26.87472485135385
-26.24074722370991
-25.62720522936651
-25.04451574738303
-24.49853315683423
-23.98921171948812
-23.51074138538903
-23.05304480889433
-22.60426859775077
-22.15368251004552
-21.69426111958676
-21.22422936261658
-20.74706709368049
-20.26989619334344
-19.80070084397687
-19.34523505813597
-18.90455728419046
-18.47387441209765
-18.04294348316142
-17.59789097227633
-17.1240666020054
-16.60940411168083
-16.04764614447746
-15.44071478154595
-14.79956078700431
-14.14309561044292
-13.49529529681102
-12.88110720601812
-12.32215064376723
-11.83321323143159
-11.42021875857174
-11.07986767717185
-10.80076174563798
-10.56563166520547
-10.3542324210604
-10.14643225161927
-9.924956128601766
-9.677245603762843
-9.396091939269157
-9.079092387913006
-8.727403853419988
-8.344503055000239
-7.935580884882499
-7.507841924634741
-7.071536609431738
-6.641240112197206
-6.236811086627607
-5.883566809916986
-5.611379000130088
-5.452548009585241
-5.438485096859503
-5.59550874787009
-5.940426402746763
-6.476859581109192
-7.193284959465138
-8.063437490974994
-9.049155467788347
-10.10516258336796
-11.1848915413464
-12.24633667046989
-13.25701954088885
-14.1973478784063
-15.06186274448014
-15.85811810256774
-16.60330391577752
-17.31921072672727
-18.02657709207713
-18.74004368134803
-19.46475670317069
-20.19519536491959
-20.91624209762109
-21.60606346505548
-22.24011463999441
-22.79550989135701
-23.25503907445086
-23.61017036480818
-23.86247262230118
-24.0231314103216
-24.11067137648701
-24.1474954497291
-24.15617297421898
-24.15640370642198
-24.16327561340515
-24.1869876431027
-24.23381894297908
-24.3079015179567
-24.41328405899348
-24.55577611071402
-24.74406360844815
-24.98962952614142
-25.30522313544075
-25.70203984107949
-26.18625443484777
-26.75585990572242
-27.39875110012792
-28.09267251421184
-28.80717449622745
-29.50727620392322
-30.15822600037725
-30.7305905885807
-31.20484283135105
-31.57461029539582
-31.84783497448634
-32.04539581008284
-32.19728863234506
-32.33707808680018
-32.49577896392215
-32.69642465480381
-32.95033836332262
-33.2556770606402
-33.59834964346221
-33.95502807400918
-34.29768280105152
-34.59885045204742
-34.83667737931067
-34.99874468730657
-35.08388310922692
-35.10165939652497
-35.06981826515515
-35.01046610781898
-34.94601064541074
-34.89577907213478
-34.87391976298488
-34.88881887304427
-34.94395002249354
-35.03982967767939
-35.17653845654202
-35.35609750429093
-35.58393510294827
-35.86883974700226
-36.22118991944276
-36.64976226985655
-37.15786886407539
-37.73981363593797
-38.37861834605395
-39.04568422969728
-39.70265549614904
-40.30535791035426
-40.80933657139892
-41.17619844972517
-41.37969872119258
-41.41039050139594
-41.27780767532407
-41.00960565817215
-40.64772796431664
-40.24229696782916
-39.84437158184105
-39.49886965238178
-39.23881186554424
-39.0817154784535
-39.02858684531321
-39.065568411622
-39.16785005799079
-39.30498733391653
-39.44643749875099
-39.56610816002551
-39.64506367139276
-39.67212057872206
-39.64265924773248
-39.55638964315885
-39.41493874436134
-39.21999958118239
-38.97251947992083
-38.67311999441222
-38.32364794439494
-37.92943365085929
-37.50152916826991
-37.05804688228812
-36.62384437590629
-36.22823014132299
-35.90097027136157
-35.6674280170415
-35.54395127845623
-35.53455178153322
-35.62958031278535
-35.80667855140138
-36.03390026219942
-36.27453894991867
-36.49285766632597
-36.6596553515499
-36.75653996817513
-36.77800213202629
-36.73089082079095
-36.63154296743383
-36.50137366480681
-36.3619995856203
-36.23090880321314
-36.11841849563587
-36.02633138914138
-35.94839099414649
-35.87233390836931
-35.78302927014489
-35.66593202717878
-35.50997171112728
-35.30915954744273
-35.06261799471748
-34.77325304148586
-34.44568199417174
-34.08417168473409
-33.69123632533771
-33.26728593171423
-32.81144004047321
-32.32339873908379
-31.80604598995514
-31.26819151695807
-30.72660806805783
-30.20646836702737
-29.73957046620569
-29.3603337274388
-29.10023591604667
-28.98186332882068
-29.0138758455033
-29.18794268590559
-29.47824259284187
-29.84366668404809
-30.23252284020291
-30.58923268243619
-30.86211888454772
-31.0109693102408
-31.0128793430117
-30.86512932318982
-30.58455162557958
-30.20374129749765
-29.7652095694859
-29.31489444272067
-28.89627940734
-28.54593082340794
-28.29083522100095
-28.14762501122153
-28.12351828177482
-28.21844783280257
-28.42749963471807
-28.74264858728976
-29.15303728434803
-29.64365823738892
-30.19302575760469
-30.77092255676712
-31.33734376620417
-31.84335486286446
-32.23398935055881
-32.45282973822087
-32.4476238007882
-32.17607670049566
-31.61077099297887
-30.74210493223429
-29.57834387466013
-28.14239615545588
-26.46566486684341
-24.58006588018632
-22.50975871670711
-20.26412264698956
-17.83305767536742
-15.18506309355941
-12.26804956182834
-9.012538884559419
-5.336633228359974
-1.151822103738932
3.631484832853732
9.099661012049596
15.33329476830749
22.40627152646503
30.38603803718943
39.33454880050872
49.30969630226991
60.36745668085354
72.56522146327231
85.96652537520704
100.6466088614487
116.6973718980482
134.2296738254856
153.3705930372098
174.2531002756683
196.9960566044516
221.674212629821
248.2809719598859
276.6900292408286
306.6241501584693
337.6394983803851
369.1320808273791
400.3694320453447
430.545975635646
458.8553942184109
484.5689131821182
507.1053454913117
526.0777213885598
541.3039631501882
552.7767411616358
560.5987705922813
564.8997344498529
565.7555269767394
563.1288755802933
556.8447930824335
546.6068793502458
532.0521205587622
512.8335916413886
488.7142023326212
459.6515576568863
425.8546279950722
387.7984003290916
346.1935369151981
301.9210315755233
255.9506587476799
209.2626319983984
162.7859520151755
117.3593132533579
73.71441665887023
32.47722023895069
-5.820488951077933
-40.72819227770719
-71.87030885170648
-98.95102407078768
-121.7699669337537
-140.2430092724566
-154.418733044273
-164.48149896365
-170.7367815741019
-173.5807821284694
-173.4608515864739
-170.8345848055691
-166.1345288217819
-159.7436102363306
-151.9840833505868
-143.1200762824913
-133.3710205101045
-122.931032210954
-111.988307559416
-100.7392143182809
-89.39390368579197
-78.1731154725171
-67.29823408444116
-56.97779667209741
-47.39362879102425
-38.6891699275384
-30.96176475583448
-24.25979350973014
-18.58454350127674
-13.8959098125688
-10.12057547629389
-7.161305410059867
-4.906293683248171
-3.237936900377276
-2.040730817110566
-1.208067762363382
-0.6476453977659199
-0.2852079975159106
-0.06650920513187975
0.04245006014051689
0.05685214064263333
-0.02381196151525788
-0.2109400436870799
-0.5206351981478203
-0.9668788595950775
-1.555213081365994
-2.278233208790753
-3.11389168281739
-4.026915601384587
-4.972882146241557
-5.904047305780512
-6.775938807771356
-7.553749409196657
-8.217515142076646
-8.765041543361036
-9.211771442881371
-9.587356117387218
-9.92948664928361
-10.27630652478887
-10.65914209179424
-11.09713528740877
-11.59470557249461
-12.14196510188374
-12.7176386024486
-13.29376401793364
-13.84127887727698
-14.33541909826858
-14.75978415204706
-15.10812651102051
-15.38346630024739
-15.59491306772646
-15.75332537715093
-15.8673097774472
-15.94084547327189
-15.97313638964865
-15.96053984693557
-15.8999511998405
-15.79282903546635
-15.64891228380788
-15.48857819141419
-15.34289909160855
-15.25088583063772
-15.25408959560896
-15.38950581324323
-15.68233866840594
-16.14036665260272
-16.75126753873922
-17.48347180796519
-18.29029296555173
-19.11653988253995
-19.90654808485838
-20.61238945187598
-21.20088964236974
-21.65813963517793
-21.99055102236628
-22.22217513182339
-22.38886700717165
-22.53066501436605
-22.68414713060871
-22.87634562513592
-23.12119026363256
-23.4187521569246
-23.75704382840429
-24.11579878031108
-24.4713796726367
-24.80174042498673
-25.09031437737505
-25.32791867859337
-25.51227619917351
-25.64547763011353
-25.73039264485358
-25.76736103276847
-25.75228333722939
-25.67663689763341
-25.52932017524127
-25.29982089294899
-24.9819833357753
-24.57749371177957
-24.09813070259491
-23.5659602411516
-23.01103762304168
-22.46677945329312
-21.96387620843363
-21.52419331561817
-21.15624313783322
-20.85337415966897
-20.59503709521428
-20.35074862329462
-20.08590787651797
-19.76837291402872
-19.37457322038151
-18.89395931898504
-18.33084732199891
-17.70319489086109
-17.03849824082152
-16.36774527824439
-15.7189696631847
-15.11209211458634
-14.55625650942894
-14.05001332824377
-13.58393328283301
-13.1448045770759
-12.72038794081594
-12.30363172733405
-11.8953222259279
-11.50444543706002
-11.14603073696028
-10.8368475686473
-10.58995576198559
-10.40959323790619
-10.28793179536906
-10.20468879401846
-10.12968326582773
-10.02764713290351
-9.864226541393396
-9.612036652832254
-9.255665362637975
-8.79463009534232
-8.243558304564061
-7.629317090676452
-6.985434867237678
-6.34486288690461
-5.732704421165364
-5.160667073714641
-4.62449145240621
-4.104699408543139
-3.570169674830456
-2.983597863572732
-2.307771165696888
-1.511581793620921
-0.5747422072894985
0.5096813976594584
1.735443366004748
3.085934135340762
4.538828873553522
6.071134215865559
7.663054819455709
9.299625869610365
10.96999260071957
12.66502087967967
14.37425125648551
16.08315921926013
17.77153313077485
19.41362851137922
20.98049564840141
22.44440097415965
23.7846001933125
24.99304284772474
26.07819637604629
27.0654150256101
27.99324374502729
28.90635281809733
29.84678276494461
30.84546005658623
31.91567829177547
33.04979195360096
34.21989307919347
35.38265063336321
36.4877144080964
37.48819911322371
38.3509937528641
39.06433042275422
39.6405380284387
40.11322438403232
40.52975710952857
40.9410847203416
41.39126743416639
41.90878788120073
42.50119819594881
43.15409675367971
43.83473402378954
44.49965874685702
45.10482939432931
45.61578849370853
46.01521182095625
46.3057393887261
46.50742610296714
46.65082652069915
46.76786998292111
46.88292572671237
47.00604329191484
47.12972730292858
47.22997081553641
47.27156452971454
47.21684488179497
47.0361208141485
46.7172818235115
46.27192853441181
45.73610059639
45.16520272164011
44.624417223211
44.1769931120138
43.87301345159156
43.74080037934857
43.78242029654296
43.97402047104204
44.27097521692668
44.61699106133229
44.9554324894524
45.24038006145814
45.44471449589247
45.56318806682241
45.60991507060638
45.6113549446309
45.59693590585163
45.58969425916127
45.59893566194039
45.61633467278195
45.61623914094148
45.56021140582844
45.40500313152396
45.1123126856067
44.6580143351848
44.03840022990315
43.27164126877454
42.39407981592642
41.45251583487183
40.49461714912779
39.55971692457576
38.67183828091831
37.83618983033168
37.03974968413374
36.25586736716586
35.45206151974778
34.59945736743985
33.68174048816717
32.70136263125904
31.68130579232982
30.66196138063385
29.69407961420768
28.82963676348101
28.11263615296344
27.57155081570286
27.21463452047065
27.02878897765929
26.98208861556428
27.02945071393866
27.12033589182053
27.20685210613566
27.25042117762828
27.22551987218081
27.11994316311011
26.93212626862801
26.66675649852769
26.33002532622273
25.92562346411948
25.45222300017222
24.90283177903935
24.2660594891771
23.5289968804713
22.68107626028216
21.7179766865634
20.64448166687528
19.47539382726644
18.23421508857179
16.95002918994351
15.6534717594262
14.3727057658681
13.13010568852863
11.940100640307
10.80842183413269
9.732833708339298
8.70525849611012
7.714987100033246
6.752393774912404
5.812329746769161
4.896354645409344
4.013283914235066
3.178029730317181
2.409101058609754
1.725283411465536
1.142049328924283
0.6682797070249717
0.3038890918874195
0.03886334040628243
-0.1459925260764502
-0.2766158014011817
-0.3819739823314295
-0.4898770894985101
-0.6232771948136221
-0.7978279975724135
-1.021044056023611
-1.292996150338903
-1.608251334049369
-1.95863109670935
-2.336212990128621
-2.735884907574562
-3.156785684182504
-3.60216419887356
-4.077546973815383
-4.587599535371586
-5.132572927830076
-5.70547770919928
-6.290928714828754
-6.866065510708377
-7.40340360487478
-7.875112341160512
-8.257985239591967
-8.53817433702914
-8.714673671745977
-8.80066804682108
-8.822205218886344
-8.814159766582232
-8.81411562020253
-8.855459256220469
-8.961323410961368
-9.140804555348195
-9.388212334637842
-9.685381323869837
-10.00654442432559
-10.3248905461387
-10.61960618316696
-10.88199961138786
-11.11935422401965
-11.35548413092335
-11.62756540419767
-11.97967247360287
-12.45436553698164
-13.08425040349559
-13.88536480339142
-14.85363513628968
-15.96489595598116
-17.17836387562925
-18.44298705204685
-19.70563427889055
-20.91968403104716
-22.05236767974359
-23.0893219047382
-24.03529569687499
-24.91085238708078
-25.74598270800202
-26.57235336373431
-27.41610969901738
-28.29276661371029
-29.20508567000223
-30.14421095116507
-31.09374027579021
-32.03580685270891
-32.95775446197246
-33.85776871433266
-34.74793677988401
-35.6536749486182
-36.60931000362205
-37.65066080769918
-38.80633587074013
-40.08978084665151
-41.49385515967961
-42.98914547082644
-44.52654131056214
-46.04381770185812
-47.47513181797098
-48.76166755327612
-49.86135150368813
-50.75563685351265
-51.45181599198275
-51.98023645998773
-52.38702190240379
-52.7240083749666
-53.03816673961265
-53.36270512108882
-53.7115524207959
-54.07821783896488
-54.43914433282613
-54.76072095313146
-55.00834790884236
-55.15554321910508
-55.19103546032565
-55.12212587700797
-54.97343158974574
-54.78134004693889
-54.58567435452915
-54.42071559045804
-54.30771553617078
-54.25055951486562
-54.23552043929134
-54.2351689152947
-54.2155948033168
-54.1453743516437
-54.00431070191325
-53.78988749023421
-53.51968875254692
-53.22889120993974
-52.96321139558894
-52.76892707914462
-52.68229867826356
-52.72073789570473
-52.87759504362207
-53.12168279127986
-53.40171359644831
-53.65482445083344
-53.81752962106352
-53.83693861679506
-53.67993114925427
-53.33827613872629
-52.82854237668111
-52.18695110040202
-51.46060367960991
-50.69728736264566
-49.93615225951861
-49.20114197363366
-48.49837312964716
-47.81778680630863
-47.13844723738546
-46.43607362668316
-45.69093791435948
-44.89417430336483
-44.05087251048617
-43.17914606295506
-42.30553291733421
-41.4581474924404
-40.65951987457366
-39.92094305041891
-39.23964110271002
-38.59940195507006
-37.97455973816877
-37.33645670593057
-36.66095530378197
-35.93531581587082
-35.1627886112071
-34.36364153822742
-33.57214409677481
-32.83011766957249
-32.17860200478247
-31.6495849282492
-31.25955489927078
-31.00611612816503
-30.86826547308542
-30.81022380205318
-30.78802367627489
-30.75754431482354
-30.682428380508
-30.54029176119641
-30.32591275243175
-30.05076828141583
-29.7392490612183
-29.4227389233767
-29.13313410540303
-28.89727634230516
-28.73339022321041
-28.65011362356713
-28.64812917763808
-28.7238230104259
-28.87395733586353
-29.10010406429349
-29.41154033840315
-29.82554234953432
-30.36463980558064
-31.05128307203651
-31.90115831751525
-32.91675079373137
-34.08267633966644
-35.3639401443122
-36.70775611647594
-38.04890212018038
-39.31788914972864
-40.45064156414212
-41.39799732941686
-42.13317284688187
-42.65552993900986
-42.98967115016089
-43.17995327969994
-43.28156726707928
-43.35003375100714
-43.4311948097867
-43.55360332128154
-43.72469212740486
-43.9313179087577
-44.14439007376505
-44.32652917548659
-44.44115360053166
-44.46108733545879
-44.37482518280027
-44.18912389436437
-43.92752400101008
-43.62541174549457
-43.32297230671099
-43.05773439406592
-42.85838067283998
-42.7411273527571
-42.70931001965535
-42.75602539437681
-42.86900219919011
-43.0364125676965
-43.25208527016677
-43.51862525366475
-43.84741965399153
-44.25536665927919
-44.7590980542533
-45.36815294496274
-46.0788522290197
-46.87052554863805
-47.70527879419055
-48.53171023724313
-49.2920788330659
-49.93167265901801
-50.40864920831845
-50.70240112916146
-50.81859406606292
-50.78957272850376
-50.6698156262399
-50.5272456369573
-50.4321144983092
-50.44566654322268
-50.61080032735562
-50.94649862862011
-51.44696631146037
-52.0854138813495
-52.82151440681256
-53.61087549511959
-54.41443842484873
-55.20566522544986
-55.97387141265335
-56.72305891142722
-57.4667696655606
-58.22043963149567
-58.99327758847146
-59.7817690307898
-60.56650287745968
-61.31319610003328
-61.97777485752198
-62.5144614031859
-62.88516126416476
-63.06805709835908
-63.06330139941147
-62.89424027437801
-62.60365939138867
-62.24578625228278
-61.87581346002838
-61.53928297494448
-61.26370457452159
-61.05426580337398
-60.89452618350678
-60.75184960865912
-60.58634517920156
-60.36141353980262
-60.05363107274326
-59.65972471453044
-59.1989530039753
-58.71027682188197
-58.24495085934853
-57.85620899969263
-57.58832671553434
-57.46744805335289
-57.49614528495092
-57.65279415210338
-57.89573718172321
-58.17121097661541
-58.42331508951853
-58.60390586436209
-58.68027570027373
-58.63897980716684
-58.48516083532923
-58.23786906860891
-57.92280596968602
-57.56443365217448
-57.1794509907573
-56.77323264947125
-56.34001172707254
-55.86659417494786
-55.33856253941094
-54.74742287155949
-54.09692430519744
-53.40684595251944
-52.7130353150565
-52.06338429044261
-51.51046102682979
-51.1023465986557
-50.87367959734363
-50.83893630533617
-50.98953965969668
-51.29553871657475
-51.71155801633898
-52.18581003138823
-52.67037232349525
-53.13064735198299
-53.55198205452407
-53.94194955269325
-54.32775139234087
-54.74929897830653
-55.24946144167787
-55.86355926666237
-56.61036497982774
-57.48656815189743
-58.46587149939258
-59.50281935360869
-60.54045832037205
-61.52019597353461
-62.39178110829595
-63.12124979323013
-63.69511619463445
-64.12000708492695
-64.41805300222617
-64.61933334087104
-64.75333259700164
-64.84157791326341
-64.89329800204123
-64.90510461759305
-64.86461435745434
-64.75697034268067
-64.57259230462219
-64.31417603687342
-64.001011794434
-63.66921801658258
-63.36744896778246
-63.14874208455276
-63.06011665608814
-63.13214815153559
-63.37090533583733
-63.75423706286819
-64.23344572440737
-64.74015522131934
-65.19708073840613
-65.53067477513501
-65.6832635345277
-65.6223228599474
-65.34508602701995
-64.87767435742731
-64.26909622771097
-63.58147035372393
-62.87854413940773
-62.21488894282509
-61.6279254832093
-61.13414182779824
-60.72976722176887
-60.39517116826152
-60.10160409156686
-59.81855323830546
-59.5199359641533
-59.18769718015162
-58.81210499531883
-58.38891354234898
-57.91434383848198
-57.37939915780988
-56.76526870706188
-56.04134273026614
-55.1666427879128
-54.09448741264839
-52.77932820579709
-51.18413392348444
-49.28648571301137
-47.08168043712568
-44.58168832648649
-41.80970135302676
-38.79096913847377
-35.54140679660726
-32.05597247661729
-28.29899604285903
-24.19842303521984
-19.64527815320515
-14.49864313937644
-8.59538178571669
-1.763077499487147
6.165676654441573
15.33944671751938
25.87612290695464
37.8543070296649
51.30892497270445
66.23184692192903
82.57789363764407
100.2759571503818
119.2441294454205
139.4068281317758
160.7111168364804
183.1388465049515
206.7108337733328
231.4792263792514
257.5052488539761
284.8224211571934
313.3897420590683
343.0435630119534
373.4590517725366
404.1314583964243
434.38436630207
463.4076158951776
490.322227692625
514.264131932837
534.4737638658188
550.3753045844446
561.6284959058032
568.1395052896476
570.0265181559563
567.5482176818936
561.0135849688004
550.6951391719413
536.7647339978655
519.2643371175964
498.1164768445802
473.1711394817152
444.2785639743959
411.3720255057131
374.5423172601576
334.0867285779044
290.5209216422963
244.552382215096
197.0256101721765
148.8561015574033
100.9692597548903
54.25383151361396
9.532203262386943
-32.45497627008675
-71.05488461263649
-105.7054438753798
-135.9409072782143
-161.4040164580768
-181.8652585789114
-197.2456261074871
-207.6355813580472
-213.3014479837098
-214.6726618276342
-212.3087739509748
-206.8512102658677
-198.9686328760352
-189.3052285365052
-178.4393395909638
-166.8570429867756
-154.9423598600887
-142.9829187360138
-131.1872958104981
-119.7083993534323
-108.6667049355134
-98.16811511023614
-88.31342159832344
-79.19908180742887
-70.91140575213306
-63.51756401725915
-57.05686263461538
-51.5348515235743
-46.92163124891391
-43.15460876828477
-40.14504798795541
-37.78708308851214
-35.967512807904
-34.57478356634985
-33.50602121451961
-32.67155621351833
-31.99695054887646
-31.42303430387412
-30.90480956272666
-30.41012217682896
-29.91867886362131
-29.42147085638822
-28.92025259590622
-28.42657063968004
-27.95989069603356
-27.54456927911391
-27.20576765891961
-26.96481166291088
-26.83475377686854
-26.81691703098861
-26.89910345596011
-27.05601062643363
-27.25214008666203
-27.44701280052157
-27.60192115072094
-27.68698543453714
-27.68711087766502
-27.60556350569149
-27.46428567847379
-27.30074297515264
-27.16185596397258
-27.0961287126075
-27.14531872797076
-27.33701141050819
-27.6793645546027
-28.15901509799276
-28.74260259912875
-29.38163308178216
-30.0197099411929
-30.60069200528111
-31.0761805176095
-31.41094086850936
-31.58544380359604
-31.59547373488449
-31.44938013110345
-31.163891766531
-30.75954573466468
-30.256774126813
-29.67349829041288
-29.02465911045704
-28.32353981310175
-27.58420006595471
-26.8239990079316
-26.06511851519504
-25.33426134362809
-24.6602836047045
-24.07021222093511
-23.58456971243718
-23.21305042662755
-22.95148938268044
-22.7808716839735
-22.66883027696099
-22.57360959312578
-22.44989978716026
-22.25547212144217
-21.9573304288776
-21.53616913677426
-20.98829538134209
-20.3247977271496
-19.56842131367
-18.74904105815942
-17.89871147654909
-17.04716890637608
-16.21852092851974
-15.42964090516862
-14.69038329309245
-14.00521116598875
-13.37544035830771
-12.80124314196613
-12.28277309863787
-11.82014945758069
-11.41248922307272
-11.05654536601287
-10.74560254928035
-10.46909049241417
-10.21311029313146
-9.961905184690353
-9.700204811801598
-9.41618438966158
-9.104487192279176
-8.768531685295617
-8.421333602254396
-8.084337019151807
-7.78420973820307
-7.548126853922238
-7.398530414215234
-7.348470135137966
-7.398389752421369
-7.534859072258207
-7.731458616926125
-7.951782605267938
-8.154214868162313
-8.297742603320037
-8.347761838336504
-8.280757145637882
-8.086949216734675
-7.770473347439273
-7.347288645415201
-6.841575864282981
-6.281589018648686
-5.695766946596721
-5.109623733235545
-4.54371493166237
-4.012805946056001
-3.526153111142476
-3.088545122621719
-2.701550141315351
-2.364372204756382
-2.073878171591224
-1.823724815811788
-1.603016057625838
-1.395288861596447
-1.178585117771901
-0.926939537713366
-0.6131200591207487
-0.212161755356036
0.2948790874358116
0.9176035050011697
1.654095565659553
2.49053442613426
3.402952732216463
4.361063351237386
5.333540288570815
6.293609917212232
7.223541138220761
8.116875086297547
8.977942043694414
9.818975530298864
10.65560190567606
11.50166139768387
12.36440591522562
13.24116182489372
14.11836977052482
14.97341905025899
15.77900031795381
16.50899402393802
17.14436806044016
17.67742201903955
18.11318893626191
18.46774376749259
18.76408131414687
19.02670713238618
19.27613973276628
19.52440933904641
19.77248864587736
20.0103239391284
20.2196745200673
20.37935908310213
20.47184450337713
20.48955665987864
20.43914447251397
20.34243626144687
20.2338459485942
20.15499229433646
20.14784679654387
20.24781019900298
20.47797986879911
20.84565412916469
21.34178639402299
21.94360718743804
22.62000912612216
23.33860719962741
24.07280374370446
24.80702238548184
25.53878705609836
26.2773563761154
27.03964140797176
27.84469063432893
28.70810761144471
29.63761261624875
30.63070458557495
31.67499465993481
32.75124340124634
33.8384944524709
34.92005232098888
35.98857810261869
37.04858109417363
38.11529145493683
39.21010755217054
40.3539197603956
41.56012218770845
42.82902736226765
44.14499783703661
45.47710148739154
46.78347917489787
48.01886970388573
49.14396082281774
50.1345823634135
50.98843505982132
51.72733099961125
52.39396732445117
53.04378964963682
53.73385159269313
54.51118946319475
55.40309275651853
56.41110144515977
57.50985005000854
58.65104339893884
59.77190355563128
60.80649122754307
61.69756920462494
62.40636797809785
62.91798162402976
63.24125770264401
63.40362218012692
63.44262127215078
63.39654101542181
63.29627886946518
63.16002889155743
62.99160568060049
62.78250086644339
62.5170647661446
62.17955641800506
61.76129754922125
61.2659846851713
60.71157599313183
60.12813523660472
59.55228085014109
59.01988608469252
58.55900503434158
58.18468937420212
57.89670889113876
57.68048526822638
57.5109506004266
57.35856135060499
57.19628480301247
57.00605580962603
56.78313090480021
56.53713626976847
56.28945933530099
56.06770356885139
55.89873853245919
55.8021174366121
55.78533734502836
55.84181839385771
55.95182343527417
56.08599022851534
56.21072651400558
56.29436857641355
56.31275130864528
56.25283023954051
56.11338900476506
55.90266007306825
55.6336209717091
55.31839000297568
54.96328021791035
54.56573604731732
54.11379929839232
53.58814487965737
52.96621592993663
52.22758795349383
51.35938934454274
50.36047340260814
49.24320273669764
48.03222882094032
46.76043283986127
45.4629800959387
44.17091600103262
42.90574421098838
41.67606941029914
40.47686356685534
39.29139065856971
38.09537269735293
36.86259960112893
35.57089230027348
34.20721060134118
32.77085136574333
31.27411583919102
29.74043214466733
28.20050789620838
26.68745386664838
25.23187298572925
23.85772903726016
22.57954851039325
21.40126114214772
20.31674654875212
19.31189083120606
18.36768858515382
17.46373478645058
16.58141072057324
15.70619458071366
14.82878504019049
13.94503443766844
13.05493869151043
12.16105015798487
11.26668113853109
10.37422234157703
9.483863744184
8.592962624726743
7.69621557689012
6.786646438985623
5.857243056807333
4.902903705093747
3.92224497069193
2.918831238937921
1.901521335235862
0.8838330842034666
-0.1175841006461744
-1.085145636732728
-2.00287215325301
-2.858853759931816
-3.647164684756746
-4.368792922719411
-5.031291662377238
-5.647094928551314
-6.230744054555738
-6.795570900703094
-7.350562425671056
-7.898105310934903
-8.433097129610344
-8.94361574306575
-9.41304431423487
-9.823262787712142
-10.15825805529762
-10.40737091828424
-10.56746075110645
-10.64349665087842
-10.64741572603158
-10.59548777985146
-10.50481413822017
-10.3898250626989
-10.25961379176531
-10.11668290276693
-9.957326027426546
-9.773536470914268
-9.5560239116043
-9.297643184635724
-8.996404151485738
-8.657317573526901
-8.292596808645865
-7.920110192451371
-7.560418228084602
-7.233132235398186
-6.953533862207061
-6.730294947695956
-6.56479199758919
-6.452093741168995
-6.383351971098956
-6.349065051727326
-6.342500652991859
-6.362498330665694
-6.414955464740276
-6.512526116595708
-6.672432057288151
-6.912768400977852
-7.248139956247685
-7.685686191291757
-8.222439525749722
-8.844593437277274
-9.52881855544274
-10.24538382160452
-10.96253020260862
-11.6513125451594
-12.29002425844071
-12.86737356565486
-13.38377028201981
-13.85041550748318
-14.28635605338406
-14.71415107420869
-15.15511256600034
-15.62511519017154
-16.1317620152392
-16.67336201875728
-17.23981486994361
-17.81514262376758
-18.38109831522373
-18.92108178872422
-19.42352669311289
-19.88398801849393
-20.30539571456328
-20.69636708737073
-21.06798280428967
-21.42983471251753
-21.78630934277816
-22.13397320582824
-22.46066060221238
-22.74651017626212
-22.96679461489776
-23.09600852303131
-23.11242161071906
-23.0022053160652
-22.76228369336143
-22.40126640428963
-21.93822548653856
-21.39960039613633
-20.81496935206454
-20.21264255790953
-19.61597845401683
-19.04107637169084
-18.49615072970689
-17.98250974981904
-17.49672833078847
-17.03340013945492
-16.58778413393886
-16.15770000831627
-15.74420650038038
-15.35094575373161
-14.98246416828945
-14.64213623734951
-14.33038662362094
-14.04374716096112
-13.77502076436561
-13.514538948463
-13.25222143559263
-12.97993571440249
-12.69359076825642
-12.39447475900531
-12.08949622020577
-11.79020138091922
-11.51072802838071
-11.26514788480334
-11.06481502767812
-10.91630847280049
-10.82037979459654
-10.77208712516613
-10.76206353367491
-10.7786437353021
-10.81040603424491
-10.8486255847004
-10.8891599042345
-10.93336461707302
-10.98779635831489
-11.06272342642752
-11.16975895032975
-11.31913571599655
-11.51719614421226
-11.76459778447713
-12.05558229313921
-12.37845165566019
-12.71716549025708
-13.05376693404122
-13.37119235177441
-13.65591174241344
-13.89980846365545
-14.10083076038974
-14.26226859312519
-14.39091098147292
-14.49464026135178
-14.58011913039762
-14.6511407186848
-14.70800888081142
-14.74805135539916
-14.76709674898333
-14.76153830914557
-14.73049649815136
-14.67754772054177
-14.61150626207435
-14.54590835556065
-14.49718733172134
-14.48193019849973
-14.51387951919107
-14.60138837691047
-14.74588671935115
-14.94166830268547
-15.1770199073707
-15.43642960328536
-15.70340012087285
-15.96330648644576
-16.20573911639857
-16.42583228790099
-16.62425038770752
-16.80583299736453
-16.97728366402858
-17.14454606869812
-17.31054835627131
-17.47385201493686
-17.62850572390085
-17.76512350575231
-17.87291525920438
-17.94218474911305
-17.96674279774932
-17.94571656860966
-17.88431138519238
-17.79324935752588
-17.68692701636826
-17.58071287201709
-17.48805937059378
-17.41812588870095
-17.37444298745572
-17.35489414299727
-17.35300538235854
-17.36024993268904
-17.36886869910246
-17.37462932514323
-17.37895197624169
-17.38987879326988
-17.42152462253884
-17.49198563614
-17.62010844687049
-17.82183671733286
-18.1069318299211
-18.47673742141471
-18.92341602113191
-19.43078847411025
-19.97660204237932
-20.5358152579732
-21.08434411554051
-21.60261171321193
-22.07817805929622
-22.5068219021656
-22.89179957914178
-23.24151664968015
-23.56627817155338
-23.87496298608842
-24.17239814750529
-24.45798220241819
-24.72578897215806
-24.96604163479413
-25.16757978669526
-25.32079397880944
-25.42040836846965
-25.46742491050306
-25.46962018073851
-25.44032275478761
-25.39571113290444
-25.35131976938134
-25.31863566041632
-25.30259287895644
-25.3005161500043
-25.30271174947503
-25.2945365954663
-25.25949999974547
-25.18280725618504
-25.0546679165675
-24.87263474062004
-24.64233606967749
-24.37633182131295
-24.09136829150244
-23.80477387590651
-23.53092850296622
-23.27864129097319
-23.04998916420375
-22.84080131040512
-22.64259817547373
-22.44550650136997
-22.24152240319359
-22.02742642868616
-21.80663332875142
-21.58938572207842
-21.39108253347627
-21.22908845527697
-21.11884772755117
-21.0703055393184
-21.08549395852399
-21.15779625519496
-21.2730090846301
-21.41196157195897
-21.55417492658912
-21.68187184701904
-21.78353906748874
-21.85621246959654
-21.90580172637465
-21.94520027898567
-21.99055215252095
-22.05660811344262
-22.15234968497317
-22.27792598148576
-22.42356266417385
-22.57064350155105
-22.69474670225239
-22.77008765781092
-22.77458133431582
-22.69456956286711
-22.5281902335598
-22.28652217182999
-21.99211755152667
-21.67523099070576
-21.36868604344749
-21.10261576696729
-20.90020231894057
-20.77515625449274
-20.73121547016602
-20.76353418651792
-20.86152270229112
-21.01248494764634
-21.20525136262773
-21.43293921194602
-21.6941063411035
-21.99198650304584
-22.33210489800517
-22.71910230028459
-23.15380182373055
-23.63138836364433
-24.14117978389456
-24.66802924796691
-25.19502194526978
-25.70687906522634
-26.19336632284465
-26.65196445821755
-27.08907258523834
-27.51919033425658
-27.96197293872336
-28.43768686612111
-28.96213175927287
-29.54227897807745
-30.17366231067039
-30.84009379374313
-31.51574619793112
-32.16916314195286
-32.76842475654787
-33.28655040762585
-33.70618496749504
-34.02263458963159
-34.24449875536429
-34.39162428960041
-34.49080765077772
-34.57029925355876
-34.65443626674706
-34.75958507761726
-34.89215243288212
-35.04889870609153
-35.21928133504078
-35.38918510828368
-35.54521359783695
-35.67864720525487
-35.78815570775787
-35.88049883733074
-35.9689023442258
-36.06948176817608
-36.19670157156906
-36.35912086709263
-36.55652656220654
-36.77913080234826
-37.00898898005924
-37.22330696817603
-37.39895885875509
-37.51736369389059
-37.56878845453974
-37.55511250372866
-37.49024185741008
-37.39784816647962
-37.30683620914109
-37.24560252010779
-37.23644841368418
-37.29138561327289
-37.41015289703753
-37.58071708420614
-37.78199796494462
-37.98816469219465
-38.17365755622949
-38.31801188595789
-38.40953388439866
-38.4470099932375
-38.43906315213464
-38.40142676577643
-38.35300143403874
-38.31182318368181
-38.29195511772124
-38.30194962531896
-38.34505757415715
-38.42089082880891
-38.52791500438204
-38.66605032597846
-38.83870325412342
-39.05362331342615
-39.32214274087055
-39.65674689925318
-40.06748310155368
-40.55817486327342
-41.12352544397748
-41.74795538568055
-42.40658504909557
-43.06827908711952
-43.70018883018535
-44.27289184695746
-44.76515059315535
-45.16741899541477
-45.48337436164046
-45.72897826059884
-45.92900967946121
-46.11162880844885
-46.30207143236595
-46.51680586709671
-46.75936305694569
-47.01867878687116
-47.27026733134978
-47.47997275129138
-47.60957275584237
-47.62325020608074
-47.49383519542373
-47.20767563459015
-46.7671200085471
-46.19004659207133
-45.50658557296316
-44.75387100006235
-43.97005786385837
-43.18886570309814
-42.43565293153081
-41.72560923544076
-41.0641716022783
-40.44932333485617
-39.87510546414126
-39.33545419742053
