-39.37083441717416
-31.08532586726898
-23.03020708506921
-15.38168310926277
-8.301434314173626
-1.927881374070201
3.632106341440488
8.310258448727097
12.08158633885531
14.96558433058079
17.02333022022523
18.35068322757509
19.06849684586006
19.31113709730106
19.21471762975865
18.90648659231578
18.49670371703088
18.07403325261076
17.70491584666182
17.43659942200606
17.30263373387261
17.32895782300091
17.53859705416684
17.95360064195576
18.59391981019404
19.47388575927807
20.59744480858668
21.95345459672638
23.51237283137197
25.22557851515597
27.02820666202767
28.8456877426067
30.60323490248891
32.23652089622816
33.70110295910729
34.97821273675702
36.0754864807796
37.02267865945246
37.86364396657302
38.64643907809176
39.41344302263862
40.19329048762751
40.99623248706011
41.8140906819003
42.62510521877012
43.40274183449996
44.12621374313413
44.78963366631337
45.40691643901434
46.01091547741621
46.64716800125142
47.36408967261168
48.20202005836814
49.18343009373348
50.30630919228835
51.54235433806422
52.84090485066807
54.1384694998253
55.37224005097524
56.49451700724084
57.48415825642822
58.35167839649395
59.13651067696006
59.89732443623754
60.69801709709046
61.59257303327366
62.61176425845218
63.75421878474442
64.98382778750506
66.23457355863093
67.4224773919418
68.46259994648481
69.2873096367957
69.86114556854875
70.18828471631666
70.31084840021538
70.29900507360436
70.23574632129571
70.19981343447513
70.24999048920537
70.41352708944088
70.68095288891014
71.00868795738783
71.32941319820621
71.56826664246466
71.6610657281601
71.56975988778095
71.29096527028322
70.85566973998266
70.3209305966348
69.75630475177655
69.22833298743394
68.786103336855
68.4504468964153
68.20887004392883
68.01760022174754
67.81084740278762
67.51563844339465
67.06882927112129
66.43192694156808
65.59986924075767
64.6018684566118
63.49486351218256
62.35186897736774
61.24807095477919
60.24728410939621
59.3910025409544
58.69195744213527
58.13355219992663
57.6755028287491
57.26453775725123
56.8475304547728
56.38361004823094
55.85216246406985
55.25512841583711
54.61386601626777
53.96217871680019
53.33753435448218
52.7723108346649
52.2866113954111
51.88396346394394
51.55082052514813
51.26002089268902
50.97731796148707
50.66913907201494
50.3093142508333
49.88294014833835
49.38665378800128
48.82582204065253
48.20993915755058
47.54766365741714
46.84263578028472
46.09086534616244
45.28021199270951
44.39215921116137
43.40559272645864
42.30174096868282
41.06906015269176
39.70684046841487
38.22670649253504
36.65182955383303
35.01429551016695
33.35143699123115
31.70194853434857
30.10236456710508
28.58422380763962
27.17210426482566
25.88262987015977
24.72441787586894
23.69877207730201
22.80082896639775
22.0208756256183
21.34563525684214
20.75940785067267
20.2450507104962
19.78486629655637
19.36147266124236
18.95864922526207
18.56206208543779
18.15975897365546
17.74236017019366
17.30290045093954
16.83631551058538
16.33866255780135
15.80628681744382
15.23519336779981
14.62081475075734
13.95824308876915
13.24289156208121
12.47146001732717
11.64298799531892
10.75973153439788
9.82764210176787
8.856323029847681
7.858437037813429
6.848646603204382
5.842309112971068
4.854261083440552
3.898006337902628
2.985457946284004
2.127178918174855
1.33293106375183
0.612293847367239
-0.02488333716202333
-0.5684028874799524
-1.008155898091245
-1.335107112969299
-1.542725295103812
-1.628613802820187
-1.595977427570476
-1.454527981571777
-1.220535755504915
-0.9159483908035012
-0.5667213671234304
-0.200645439457412
0.1550070258549886
0.4757239513566216
0.741630389235859
0.9387818100763454
1.05971366791569
1.103193718168798
1.073274963778068
0.9779089136757733
0.8274796407925701
0.6335909826581447
0.4082940449632469
0.1637653674889862
-0.08768719510993661
-0.3334776298236096
-0.5606422043846945
-0.7559392582695691
-0.9062496052362714
-0.9993171908827307
-1.024787387790656
-0.9753926317994209
-0.848027803729178
-0.6444206501699109
-0.37119377173457
-0.03929577681724138
0.3370603874848727
0.7417438656245722
1.15813620448939
1.570478918224232
1.96499753991036
2.330684140958388
2.659667632786294
2.947177506185239
3.191185252984718
3.391859565497273
3.550981215078948
3.671434074328381
3.756840879865085
3.81136646060965
3.839676332315734
3.847018426664782
3.839381012977787
3.823653863071818
3.807693936026647
3.800206131911008
3.810399945364404
3.847441725239587
3.919759993405417
4.03427418286526
4.195620837941357
4.405461866828338
4.6619714994248
4.959594077095826
5.289143773071847
5.63828944459896
5.992425162824286
6.335861896634949
6.653206885242234
6.930752901648001
7.157693809168808
7.327012434236148
7.435937955134071
7.485930685692587
7.482221424109676
7.433004427977695
7.34843312152726
7.239576366265911
7.117466746228115
6.992329479346744
6.873036327190118
6.766791991409894
6.679031686353205
6.613483967622
6.572332951753758
6.55640442489355
6.565308512254036
6.597503722539743
6.650295238038651
6.719819251835564
6.80107760241488
6.88807752503907
6.974110998563297
7.052182452805153
7.115565787854405
7.158444655473567
7.176566313567623
7.167820254187722
7.132636083972363
7.074087670052318
6.997619815993573
6.910395043433759
6.820354588664442
6.735143842962366
6.661057526259031
6.602142057612824
6.559567868027812
6.531347697894382
6.512431703268001
6.495175546190514
6.470158415325964
6.427295043475357
6.357114707217087
6.252007065463433
6.107226882213475
5.921513046061982
5.697249448769313
5.440138709291478
5.158403759725212
4.861609683967901
4.559289684092743
4.259623033851557
3.968432602548375
3.688738563153534
3.420994362670222
3.163933378370325
2.91575612068943
2.675311683559629
2.442990762071688
2.221160777477971
2.014074947362793
1.827287360559072
1.666707825429279
1.537499019964769
1.443042317036202
1.384205819210242
1.359139788613994
1.36373535906276
1.392670965016446
1.440737981164067
1.504048652272396
1.580815008815265
1.671533671070133
1.778542475643236
1.905043065024953
2.05380290381367
2.225813416446586
2.419182188710466
2.628522219422758
2.845075575256089
3.057694752337901
3.254555793857612
3.42521118092326
3.562494089645619
3.663881528367377
3.732074775417298
3.774680931014365
3.803017065170345
3.830226518055426
3.869035889756605
3.929547106421396
4.017476304146428
4.133234002608247
4.272118678558721
4.425608656876825
4.583397180044734
4.735638246800483
4.874918206632652
4.997605295955935
5.104352937267152
5.199676033272593
5.290710028138858
5.385431821456901
5.490706009905583
5.610540958264838
5.744929006746213
5.889558637482593
6.036467944799599
6.175429837006109
6.295685409790984
6.387637605851675
6.444194072398884
6.461527702595242
6.439131545977737
6.379207334511612
6.285585515555373
6.162462249565152
6.013260223731496
5.839908015065303
5.642771890484443
5.421326120675919
5.175441165376016
4.907000618804505
4.621487676978484
4.32918436517527
4.045671775930142
3.791427351275015
3.590488854983969
3.46833177559888
3.449229561210768
3.553444658372303
3.794661121111354
4.178084916673563
4.699540757220282
5.345688022077167
6.09525764932733
6.92106579055703
7.792499786408007
8.678165660623078
9.54841487864446
10.37752122951621
11.14533103191443
11.83824129233992
12.44938904245062
12.97800418124932
13.42800894836533
13.80610797307367
14.11973279694555
14.37522516284767
14.57656394126277
14.72481071377272
14.81831804213036
14.85363282846247
14.82693315721787
14.73575098532327
14.5806536985262
14.36650804446177
14.10297857104888
13.80406539303046
13.48674849316291
13.16906619907587
12.86807737797038
12.59810936185056
12.36956233807483
12.18841080669479
12.05642959823844
11.97206172663224
11.93173877306441
11.93137367272682
11.96768240952275
12.03898368611073
12.14522986406001
12.28725774449835
12.46551601587964
12.67867237500702
12.92247729017923
13.18914469646116
13.46738569234616
13.74311359752062
14.00072322484491
14.22474854298623
14.40162903954137
14.521258768602
14.57797368605861
14.57071883002491
14.50235936978447
14.3783636396769
14.2052360628534
13.9890639426886
13.73444322405079
13.44393998528357
13.11813748292414
12.75621221059796
12.35689405251056
11.91960660287174
11.44555333131741
10.93852177284768
10.40523954203307
9.85522989860856
9.300235501737381
8.753349301887756
8.227996715353251
7.736890348254563
7.291067830077315
6.899125381910563
6.56674553231796
6.296571780436247
6.08842183569581
5.939775026647688
5.846426276740748
5.803177039541057
5.804444510496237
5.844709358236086
5.91876729961468
6.021787619495284
6.149216204934442
6.296594448943351
6.45938692461424
6.632909892321818
6.812434922061943
6.993508336459029
7.172459264277533
7.346969631195075
7.516514443887082
7.682520109252933
7.848204267508354
8.018154228078423
8.197729396893456
8.392374821342015
8.606944586459093
8.845146563529289
9.109214721441319
9.399888426601155
9.716721478050216
10.05863462005646
10.42448394984799
10.81334941450027
11.22434615447134
11.65596984169605
12.10515329908167
12.56626891522902
13.03030660182696
13.48443937876869
13.91215890347253
14.29410436839393
14.60961147030206
14.83887076634605
14.96540613744516
14.97840323625534
14.87434970807953
14.65759714820849
14.33976231934602
13.93816795061304
13.47366286604065
12.96818159996442
12.4423814458962
11.91366533168846
11.39484742389789
10.89362691020099
10.41291074203487
9.951881618400416
9.507560098383633
9.076507521063135
8.656315727206177
8.24662651222536
7.849554369349454
7.469498680785115
7.112420412675166
6.784734181097581
6.492024355956912
6.237818014180521
6.022636519311861
5.843512237231392
5.694095220967631
5.565375655234852
5.446923409500443
5.328434472416479
5.201310522026397
5.059993950965775
4.902827327840121
4.732288197436534
4.554554236421601
4.378464152287223
4.214035903242751
4.070773635960114
3.956037155571575
3.873758795368965
3.823757727924594
3.80180272602485
3.800411267536271
3.810191123440926
3.821404769330638
3.825411485640457
3.815705157763758
3.788378503662797
3.74196978012096
3.676763581341858
3.593719346348089
3.49329048208641
3.374459936798221
3.234321634495917
3.068437020871008
2.871976692348007
2.641389461164637
2.376155198147054
2.08014873302068
1.762242316949596
1.435938365369197
1.118011100319192
0.8263249540607902
0.5771692922658748
0.3825791615510278
0.2481754255620845
0.1720241297622261
0.14484279953311
0.151564068807916
0.1739055126341317
0.193354039471877
0.1939344580564981
0.1642483463003917
0.09846275793473105
-0.003852006277433699
-0.1389277209554793
-0.3007662268624499
-0.4834531827744444
-0.683296378146235
-0.9002321585061729
-1.138064925453571
-1.403429309610124
-1.703778508512655
-2.044990812735358
-2.429236399651814
-2.853608198800498
-3.309798834752808
-3.784882565689155
-4.263082467382623
-4.728263947757211
-5.166757829567232
-5.569966277489305
-5.936104527692258
-6.270515085965934
-6.584345302237651
-6.891885387640717
-7.20726027215427
-7.541292927115217
-7.899232070171223
-8.279770325753118
-8.675483303869271
-9.074574220034314
-9.46361285998784
-9.830763428720786
-10.16879351138148
-10.47703352787579
-10.76158011123766
-11.03350321639432
-11.30546453061614
-11.58765058214963
-11.88406674353843
-12.19007227757145
-12.49171003245071
-12.76702225678198
-12.98920667373525
-13.13115172601588
-13.17058607550547
-13.0948248727506
-12.90400069636829
-12.61188303355449
-12.24398215250132
-11.83340121591751
-11.41547278487426
-11.02237950666957
-10.67877958955814
-10.39911476335997
-10.1869141723842
-10.03608408339962
-9.933877597858109
-9.864939183484337
-9.815532278984143
-9.776888651946665
-9.746748887101461
-9.728694045233077
-9.729601717726501
-9.756109999971844
-9.81112739332931
-9.891254316819888
-9.985658400654923
-10.0766187586517
-10.14168982723867
-10.15719752852456
-10.10250627824256
-9.96419728277756
-9.739108464620056
-9.435320916879286
-9.07074259349353
-8.669707479005725
-8.258554430160112
-7.861264370529352
-7.496023745422736
-7.173244447952584
-6.895248303889318
-6.657578582064172
-6.451697639901007
-6.268588260661137
-6.102473482769995
-5.953624614796126
-5.829293676882899
-5.742346781745893
-5.707973631989214
-5.739446142007083
-5.844051647614948
-6.020139277996858
-6.255896236956405
-6.530134513078131
-6.815051503801799
-7.080610799921701
-7.299844522098666
-7.454024751781323
-7.536417220838991
-7.553470507949775
-7.522968718505483
-7.469634515767171
-7.419384951306236
-7.39362746516458
-7.40476483758915
-7.453706627570834
-7.529796639519208
-7.613180999215538
-7.679239395973459
-7.704282672803791
-7.671329067987378
-7.574540225358886
-7.421067485850219
-7.229774268883738
-7.02729605005289
-6.842634138252901
-6.701664950420613
-6.622722742369735
-6.61404147935724
-6.673455799349502
-6.790381196144812
-6.949703935856794
-7.13680737548275
-7.342575304321202
-7.566974935261346
-7.81999303178644
-8.119439025414767
-8.486162828559305
-8.93799846673563
-9.483939381586802
-10.11981937495432
-10.82637543529208
-11.57013646878625
-12.3071339035583
-12.98895705779672
-13.57018967541769
-14.01581650943451
-14.30692469964205
-14.4432152129172
-14.44165646810649
-14.33177195739157
-14.1489498152836
-13.92744138042273
-13.69449244804573
-13.46660690842012
-13.24846515094736
-13.03457333852882
-12.81328828846468
-12.57240702228448
-12.30504141360361
-12.0141706774202
-11.71439754535452
-11.43023524214374
-11.19142193109361
-11.0266480680927
-10.95733027726306
-10.99282283388517
-11.12801957386102
-11.3438167763286
-11.61041816064932
-11.89297588859247
-12.15857959303586
-12.38315118648344
-12.55651885426758
-12.6841461382699
-12.78488887576597
-12.88542004422254
-13.01290988209717
-13.18779723205386
-13.41820560834106
-13.69706676695465
-14.00247956155157
-14.30128756733107
-14.555313676947
-14.72915549324679
-14.7979561558135
-14.75326982576133
-14.60535890810742
-14.38119991632033
-14.11880325549048
-13.85945603620842
-13.63977881901856
-13.48521598410753
-13.40609405582706
-13.39685785672392
-13.43856090451419
-13.50414133273163
-13.5654676823399
-13.60063204095395
-13.59965694335385
-13.56698561742255
-13.5200396600716
-13.48440997621618
-13.48719489845264
-13.55024459747176
-13.68479066764247
-13.88846094485945
-14.14517936304695
-14.42797163583088
-14.70422569787352
-14.94246819736758
-15.11923584599539
-15.22430432665651
-15.26272556523577
-15.25302595884539
-15.2221848071153
-15.19893459005178
-15.20713674164488
-15.26066961861963
-15.36074623102063
-15.49605300194128
-15.64564138074388
-15.78409677244582
-15.88808655707739
-15.94293054732628
-15.94750267031594
-15.91592688907443
-15.87540952653227
-15.86081479330912
-15.90752656008117
-16.04437489899674
-16.28811804114048
-16.64047580099958
-17.0881833998601
-17.60603092131593
-18.16236630138264
-18.72603785656781
-19.27325600764235
-19.79254483147348
-20.28619705079561
-20.76765200911662
-21.25559417438562
-21.76655205729016
-22.30797525114006
-22.87339036641804
-23.44065172103769
-23.97370622520354
-24.42771908350092
-24.75682643770917
-24.92318419900006
-24.90544702476673
-24.70455602398143
-24.34509140505725
-23.87162381214643
-23.34102707545652
-22.81277894837466
-22.33947764246423
-21.95938253993714
-21.69214858665843
-21.53828036988064
-21.48223748008179
-21.49855905454086
-21.55980936033813
-21.64460456623689
-21.74365967038634
-21.86207671542138
-22.01718916692845
-22.2327492638384
-22.53128047872273
-22.92662482475843
-23.41833042745484
-23.98892978822024
-24.60456569447621
-25.21889285646144
-25.77968561645749
-26.23705426648089
-26.55163922837639
-26.70082403779508
-26.6812620082421
-26.50704452125798
-26.20424405846795
-25.80357332318856
-25.33312119002895
-24.81274666369688
-24.25109815105274
-23.64562759375382
-22.98548416346053
-22.25675155078468
-21.44904057126783
-20.56197622461999
-19.6098273365414
-18.62275748702019
-17.64409806793893
-16.72430417453508
-15.91317974701181
-15.25219735193809
-14.76844881629208
-14.47125407650282
-14.3519134188775
-14.38657514941774
-14.54169928145439
-14.78110615455243
-15.07314057415685
-15.39621860993763
-15.74124414304555
-16.11024605142114
-16.51178805945941
-16.95462188633095
-17.44133472513848
-17.96350429996649
-18.4994033139795
-19.01476878367575
-19.46662801179135
-19.80964804682532
-20.00394029089896
-20.02275327415494
-19.85819988918006
-19.52339599016016
-19.05030549790499
-18.4838728505289
-17.87401867644414
-17.2673871763622
-16.70048132794558
-16.19531650506417
-15.75816930832179
-15.38146475092795
-15.0483317993978
-14.73885610563734
-14.43660815544846
-14.13377599104233
-13.83344651897144
-13.54839482886291
-13.29686263714238
-13.09666040784016
-12.95918695576731
-12.88473623436017
-12.86002100403342
-12.8583686416488
-12.84260086980998
-12.7701845808114
-12.59981175031018
-12.29817367166395
-11.84548439630243
-11.23849478283399
-10.49041072046061
-9.62803400415979
-8.687125314159328
-7.707196257166193
-6.726762343817198
-5.779745546254976
-4.893367973677807
-4.087605489612531
-3.376053212620926
-2.767822238354102
-2.269817459442889
-1.888542452882251
-1.630637111360423
-1.501792120367232
-1.504333375202937
-1.634269658479388
-1.878735462964543
-2.214602041882908
-2.608738776522097
-3.020090015847124
-3.403425555052884
-3.714326109418518
-3.914678358660056
-3.977714371872946
-3.89153670129322
-3.66026367116602
-3.302466753647076
-2.847280200832459
-2.329114065978919
-1.782093345103237
-1.235227223901428
-0.7090379778720967
-0.2140560853656079
0.2487396734344462
0.6857749392796866
1.107556526430859
1.524944035982029
1.945900044816087
2.373484951937096
2.805474696320086
3.235457867739794
3.654865922498827
4.055254635905131
4.430238303127044
4.776666119246411
5.09485623894791
5.387927960031906
5.660458688143512
5.916828399813696
6.159705016701956
6.389139868952335
6.602617560447765
6.796118977430679
6.965913869245284
7.110571834868471
7.232650908804995
7.339642336400314
7.443941178749637
7.561827727053061
7.711635754005463
7.911409083170856
8.176415022947872
8.516919349573593
8.93661883584794
9.432025199397783
9.992886661412061
10.60349260504179
11.24454397288465
11.89523629981212
12.53525526679375
13.14646648220835
13.71416048100566
14.22778420672322
14.68115713130377
15.0722390006693
15.40257511699614
15.67656738070435
15.90069044097306
16.08271072583085
16.23091506522848
16.35334879078804
16.45709399860053
16.54765092435024
16.62849334092438
16.70085322006664
16.76376238189752
16.81435065934198
16.84837981794063
16.86097822828139
16.84751894641639
16.80454758937687
16.7306342469779
16.62702031781525
16.49796227506417
16.35072428119886
16.19522010818764
16.04334264428443
15.90804803535533
15.80228467220757
15.73787584792045
15.72447594619423
15.76871176902432
15.87358262727393
16.03814059171185
16.25744044772777
16.52274887911036
16.82201217863019
17.14057891542388
17.46215375295705
17.76992727817862
18.04779680080591
18.28157663025445
18.46009455920486
18.57607411644013
18.62669633533954
18.61372273617272
18.54307985285753
18.42389480501929
18.2671086801419
18.08390345610206
17.88421065245518
17.67553827175967
17.46228764957061
17.24564932780809
17.02407361767931
16.79421778208855
16.55219093472473
16.29485585888357
16.02091339749182
15.73152605201214
15.43036391863374
15.12313152071384
14.81675607992905
14.51844426994921
14.23479557291262
13.97114002746418
13.73122281258411
13.5172599725581
13.33027450052581
13.17055049695054
13.03802816919823
12.93248378242301
12.8534063498682
12.79961646174292
12.76881841874372
12.75733306087747
12.76020123982449
12.77174833661454
12.78661068102402
12.80112957267567
12.81491202652305
12.83228667336027
12.86338511451907
12.92462923300205
13.03846902991634
13.23231233209212
13.5367431072384
13.98328179187827
14.60200066228949
15.41925803895439
16.4557332596103
17.72488403552817
19.23189923663567
20.97315743536575
22.93612465933635
25.09956320280165
27.43391789596715
29.90183135591413
32.45892028699731
35.05513933033621
37.63710350352544
40.15154777073312
42.54975596428532
44.79241840350635
46.85407529707228
48.72618605709685
50.41796967479482
51.95437105179782
53.37078866359913
54.70477062757049
55.98590698793901
57.22628019181307
58.41433291194621
59.51434826162694
60.47217655797586
61.226168483486
61.72098024699818
61.92102455268027
61.81990173094955
61.44233216612951
60.83594663425793
60.05188925215626
59.11600189700744
57.99631213788881
56.57595934225011
54.64106060183705
51.88940057312391
47.96006705167678
42.47915558447745
35.11374546235987
25.62492353231011
13.91014870715713
0.02611602011586833
-15.81406287407036
-33.2710740196314
-51.93246280478154
-71.37688102722917
-91.23297920724
-111.2174074838832
-131.1437090410329
-150.9035882483522
-170.4291296201159
-189.6471526136709
-208.436670219459
-226.5993786958944
-243.8511353751436
-259.8383482535302
-274.1771606116491
-286.5067703179317
-296.5432717937883
-304.1192748992449
-309.1985976386301
-311.863407215972
-312.2796314660012
-310.6514817021652
-307.1762960516369
-302.0084925153049
-295.2387920261504
-286.8925341123265
-276.9475857205985
-265.3676952502809
-252.1427936031392
-237.3257437029052
-221.0563282809157
-203.5673432747311
-185.1729201619988
-166.2436244204226
-147.1750182136387
-128.3560433048412
-110.141799304555
-92.83338741802531
-76.66602435815862
-61.80535614088948
-48.35062899820115
-36.34244549984452
-25.77267332586647
-16.59464421166224
-8.732621410895035
-2.09018188633587
3.442492048428891
7.982309593614081
11.64787977275647
14.55505663293879
16.81358200063883
18.52506586893664
19.78247790384322
20.67108523079306
21.27039201206399
21.65621831581315
21.90184064561305
22.07735941912155
22.2471274273278
22.46580575363018
22.77404914039723
23.19487889608754
23.73162380187804
24.36805603435451
25.07105837074199
25.79579072362722
26.49285697410643
27.11643697166679
27.63186717071881
28.02100150500418
28.2841225402843
28.43811277113824
28.5115780784738
28.53821014841299
28.54979924247479
28.57015311117551
28.61093707421321
28.67016197741292
28.73364301974547
28.77919396567389
28.78265281158901
28.72422207988921
28.59336799756459
28.39093386692303
28.12807272480771
27.82259734029089
27.49392796588914
27.15791007460433
26.82259662596287
26.48586291953737
26.13546619402118
25.75177198228121
25.3128040153233
24.80060824953703
24.20733757775375
23.53927733120445
22.81751074352941
22.07494604911545
21.35048143395368
20.68170791172848
20.09766505141487
19.61298471428467
19.224486763681
18.91095213251409
18.63632397549251
18.35595895536257
18.02482512360525
17.6058851160764
17.07664827484458
16.43232712475298
15.6850758402021
14.85988023606399
13.9883320895346
13.10170013912715
12.22463316665474
11.37066053745367
10.54037145732699
9.722696031250743
8.899095185333197
8.04975311943857
7.160199671800201
6.226500515256002
5.257557020188927
4.274041679419206
3.304512505851714
2.379841537958673
1.527247907438575
0.7651745732333539
0.1000871175469152
-0.474060016264562
-0.9734560918992584
-1.419532686312001
-1.832528730347655
-2.225096774359043
-2.597744413795639
-2.937457554972936
-3.219854577759445
-3.414219528116626
-3.490199200230127
-3.424802781513148
-3.208374695616044
-2.84835082225899
-2.369944535774864
-1.813445741066848
-1.228454384204051
-0.6660563806339068
-0.170595773854649
0.2270093822924693
0.512854339743056
0.6899698972511601
0.7750417268785446
0.7930063450532667
0.7707932634545723
0.7314599222876152
0.6898271004205098
0.6504388331818697
0.6082536509686123
0.5519611660463517
0.4691921649294988
0.3522239805134725
0.2024199382851144
0.03196192950600549
-0.1376281121839798
-0.2796680379043941
-0.3680723776733906
-0.3833824014272631
-0.3178083716215004
-0.1781846810817933
0.01394341468965837
0.2254030627410855
0.4173519571649664
0.5531134572518286
0.6061796717582425
0.566315864187433
0.442091028771794
0.2592333234247894
0.05539059516596283
-0.1273730746554079
-0.2507684902003724
-0.2876137294835579
-0.2269265882590853
-0.0757362101280607
0.1428808347714177
0.3953289460765091
0.6455494172202252
0.8637475201157341
1.033508566828799
1.155406444756334
1.246336750210433
1.335069293263617
1.455334402379423
1.638044754815474
1.90424094490741
2.260178124774221
2.695612155384633
3.185780671300009
3.696857234600785
4.193816717610199
4.648815037109456
5.047766181477224
5.393234718470679
5.702973513107988
6.004768528447072
6.329080122514937
6.701193155917745
7.134479660395358
7.626145366918225
8.156465629680541
8.69195731043489
9.192182531713398
9.618970809106166
9.9459431944766
10.16577733032639
10.29313731946929
10.36252774759251
10.42181791185078
10.52313281927371
10.71308198105144
11.02417390344322
11.4689889362111
12.03827571917447
12.70352995017037
13.42378701833193
14.15534517401279
14.86213225904958
15.52393411906275
16.14021580674098
16.72869740521331
17.31944926667931
17.94630190777313
18.63765120431324
19.40857550746705
20.25585982043581
21.15708219079415
22.07426727886229
22.9617091047657
23.77646241475995
24.48894749376483
25.09065402842884
25.59659012429308
26.04178082672638
26.47293739693156
26.93754994304277
27.47289875223435
28.09718428238001
28.80451384780897
29.56492474546862
30.32985326085825
31.04240984601969
31.65056156451263
32.12015237028056
32.44422327843993
32.64589884784771
32.77403930741006
32.89297609125954
33.06898817088803
33.35648789232192
33.7865634927814
34.36000563560623
35.04630576114055
35.78920944012258
36.51816635709815
37.16354470016522
37.67212575372722
38.01884280457829
38.21159908157994
38.28813062418075
38.30622828858197
38.33012262676051
38.41617868501707
38.60068849474951
38.89200025982556
39.2686023255736
39.68391087115868
40.07725527416239
40.38898046704722
40.57607350997838
40.62403849600616
40.55160230594482
40.40708728210839
40.2578134834849
40.17551529419176
40.22114229342298
40.43202513398898
40.8137803974833
41.33865477534936
41.95109483562902
42.58000663218643
43.15547581137226
43.62605473700269
43.97193706342716
44.21023516965113
44.39101816999625
44.58554494532287
44.86994156160249
45.30804379137138
45.93674783857873
46.75658330262453
47.72948728753847
48.78471830153372
49.83234326050246
50.78183837196678
51.56151483491188
52.13361916292148
52.50092744329847
52.70331894080022
52.80586053716396
52.88191946738161
52.99530737086172
53.18500661622127
53.45533368646035
53.77361321218568
54.0763249111395
54.2830755767047
54.3157645085103
54.1184476572906
53.67257838030972
53.00335601961123
52.17567627238093
51.28128812836405
50.420763013562
49.68434965568422
49.13530558988541
48.79856998847807
48.65686007388292
48.65521719396293
48.71351773408397
48.74457970784875
48.67369102478696
48.45453799975489
48.07743195916478
47.56825136919221
46.97935662812456
46.37554905931318
45.81855742255981
45.35309015806942
44.99686785013657
44.73645373685113
44.5299095237576
44.31608641351563
44.02875405656498
43.61219112331169
43.03409868088168
42.2924423355387
41.41491260065552
40.45201878246694
39.46628165937221
38.5202619466972
37.66571860008283
36.93563051460568
36.34034741306688
35.8685733701416
35.49300750896368
35.17930230358995
34.89590558777049
34.62192231425431
34.35081167541351
34.08930303600867
33.85253071492998
33.65728897803585
33.51534182281841
33.42825836105956
33.38473532876033
33.36095974513444
33.32409113919947
33.23826350276949
33.07174123750985
32.80333053062535
32.42620398535131
31.94809027206704
31.38801022805782
30.77079268500472
30.12103119771715
29.45794107092969
28.79205851170101
28.12423084796418
27.44698110662222
26.74795344024258
26.014664342736
25.23933522149354
24.42242008858084
23.5737547656212
22.71101386127283
21.85605569958369
21.03034298882686
20.25073832661557
19.52666785513564
18.85914544336484
18.24168142115504
17.66277519589033
17.10945319902781
16.57108217483975
16.04251949609201
15.52571233485084
15.02923181263694
14.56585657425124
14.14893322681332
13.78855276368485
13.48851615484558
13.2447339190747
13.0452776276014
12.87193617782348
12.70291394643334
12.51618298281255
12.29287308451181
12.01998367312321
11.69175940575153
11.30937479606007
10.87906462287395
10.40930598432335
9.907887099136635
9.379633278855069
8.825286997281466
8.24168023827389
7.623032196096578
6.963039380486169
6.257347630249075
5.505914168167489
4.714696224438129
3.896143934334788
3.068211252069627
2.252003232169181
1.468587704907393
0.7357209597990082
0.06520969672915833
-0.5385717478921694
-1.078768873976732
-1.564771552220235
-2.009826842888858
-2.427963196336025
-2.830789725629052
-3.224816538689752
-3.609908003934053
-3.979273703421298
-4.321021372059611
-4.620868650619182
-4.865331888048487
-5.044671940633669
-5.155015584200971
-5.199283797847227
-5.186789337457112
-5.13159836537496
-5.049971303837624
-4.95738128248228
-4.86572219894937
-4.781327360468211
-4.704276411327495
-4.629151499377897
-4.547003325575017
-4.447979844013498
-4.323966274329874
-4.170662202005079
-3.988697333770463
-3.783597668342156
-3.564628267705025
-3.342745425158203
-3.12807462702808
-2.92746560211962
-2.742724152791288
-2.570023758761654
-2.400719683254342
-2.223396120395178
-2.026642632802434
-1.801909679143173
-1.545842181001073
-1.261658045709172
-0.9593357156374501
-0.6545590643340831
-0.3665551385975167
-0.1151668001010772
0.08229846208074998
0.2137721437088106
0.2740352362078795
0.264839909120394
0.1935676981494557
0.07085801979426495
-0.09213932753057544
-0.2862511725829358
-0.506046412439525
-0.7506252065977764
-1.023340826570777
-1.330503868674437
-1.679285320523011
-2.075230096041429
-2.51995780835334
-3.009659934646732
-3.534818645269541
-4.081212605092427
-4.631903219677952
-5.169665986819203
-5.679295427422486
-6.149326116287046
-6.572896053575324
-6.947667851170749
-7.274896681152895
-7.557892383506853
-7.800260126322006
-8.004388261760655
-8.170617618321101
-8.297324497213497
-8.38184212455065
-8.42188541443193
-8.417036494629862
-8.369884743932413
-8.28653354381237
-8.176337157835198
-8.050890102385477
-7.922444457220438
-7.802062343865693
-7.697901506363157
-7.61405209669791
-7.550244532410212
-7.502510589056893
-7.464585204856819
-7.429632890056736
-7.391844892299778
-7.34754177858849
-7.295561034996688
-7.236871901947082
-7.173525491024634
-7.107203337718261
-7.037745009595133
-6.962080622443274
-6.873936014057103
-6.764492706466962
-6.623892669506268
-6.443197171401022
-6.21628625051043
-5.941252264601331
-5.621010978243338
-5.26303868463409
-4.878304579263058
-4.479594295624089
-4.079521348129716
-3.68860403322774
-3.31382373242737
-2.958028802366665
-2.620360642368056
-2.297571340498792
-1.985804771941873
-1.682285711198378
-1.386443800198242
-1.100206229523535
-0.8274278157099317
-0.5726232001689092
-0.3392860918358689
-0.1281395187933315
0.0643000151131248
0.2464443476226232
0.4313048554384641
0.634984072960457
0.8741944965890504
1.163334430593316
1.511793559505059
1.922083408145504
2.389173209599
2.901154057517793
3.441116534476509
3.989938058971926
4.529520699708637
5.0458843400461
5.53144840847528
5.985911581836063
6.415422434981404
6.830190180235571
7.241143724565826
7.656498845845701
8.07905722274727
8.504816445353784
8.923146460431305
9.318484008521983
9.673247522193783
9.971455967385653
10.20233632451792
10.36309236273581
10.4600857844843
10.50800936744555
10.52715773273134
10.53943399492062
10.56404341195087
10.61382519061512
10.69293291685082
10.79622995747582
10.91043451734362
11.01677427677754
11.09466716953087
11.12572222562713
11.09722034310002
11.00429034475061
10.85029287646521
10.64540740459477
10.40390686396569
10.14089926498252
9.869335840653847
9.597885682893159
9.32997378807748
9.064002078187862
8.794590952957714
8.514551965831256
8.21716680382354
7.89822985259799
7.557307890006979
7.197855330320709
6.826174267566233
6.449583396228684
6.074384703152952
5.704216204926881
5.339196725425657
4.976009481248326
4.608851177488856
4.231047402972506
3.837056068167398
3.424485447385699
2.99566475774809
2.558310940164745
2.125004059599295
1.711497644014532
1.334224980713647
1.007567847837521
0.7414738273710509
0.5398874265503759
0.4002717217214821
0.3142985309148177
0.2695991069735044
0.2522838364385883
0.2497622921754457
0.2532731982551889
0.2595338963019436
0.2710875641335788
0.2952531127861921
0.3419612868947343
0.4210325223477282
0.5395248813806869
0.6996832189729124
0.8978519065699293
1.124547316517777
1.365719134949265
1.605021824892158
1.826682784262135
2.018367818643713
2.173383598601141
2.291668812401357
2.379317440343482
2.446770420864889
2.506153215711338
2.56840086657159
2.64078195250114
2.725286388814519
2.818166160101475
2.910730055356666
2.991265309974836
3.047707368934915
3.07047926931416
3.054847150577206
3.002227932474189
2.920140030666089
2.820841500223934
2.719026449886973
2.629135999553222
2.562846132793497
2.527172589842134
2.523473848468923
2.547483896110448
2.590349011798072
2.640461797088795
2.68571135629848
2.71565454438728
2.723113896892403
2.704857049445114
2.661280665879192
2.595308028093953
2.510896833522271
2.411579881528437
2.29935699129696
2.174117011657089
2.033660907022332
1.87430790224959
1.691958705976663
1.483367961959061
1.247290391527138
0.9851676158786719
0.7011417642435451
0.4013841101493811
0.09293268896226385
-0.2176346754539829
-0.5253469807093821
-0.8275444123210498
-1.12400783539645
-1.416509838031841
-1.707904194774921
-2.000977749593361
-2.297354315423349
-2.596732883025727
-2.89665146316956
-3.192813813370711
-3.479856012930963
-3.752326956056563
-4.00563449465377
-4.236748906332644
-4.444530464845784
-4.629637708250241
-4.794063754535411
-4.940429445548363
-5.071220174738437
-5.18816964940188
-5.291955983532388
-5.382285196250599
-5.458318696957914
-5.519301640907406
-5.56520694683429
-5.597224506728671
-5.617971603893825
-5.631361708270084
-5.642140972559765
-5.655182520781342
-5.674704740121698
-5.70362299348845
-5.743224973784814
-5.793270669139815
-5.852482945210489
-5.919266847368567
-5.992436727496612
-6.071763668537169
-6.158240327446664
-6.254038385396991
-6.362186100936497
-6.486031895440283
-6.628596824023809
-6.791954507523659
-6.97679500780341
-7.182302630624847
-7.406393322543698
-7.646231709142436
-7.898831329118575
-8.161503943905526
-8.431997746959416
-8.708300332381535
-8.98819599478079
-9.26872066234537
-9.545667301346736
-9.813283786597669
-10.06428177352994
-10.29023335331481
-10.48236278728322
-10.63264217865108
-10.7349909283251
-10.78630579278034
-10.78706939977413
-10.74140951311096
-10.65663700180847
-10.54239126835613
-10.40955131961082
-10.26906956234063
-10.13088586300814
-10.00307701397876
-9.89136922545849
-9.79907545812021
-9.72742350131588
-9.676141429706083
-9.644103886577927
-9.629853270663109
-9.63189419568226
-9.648761448697401
-9.678916957244208
-9.72053264978694
-9.771208968993998
-9.827697367704818
-9.88572365433323
-9.94000883707688
-9.984538868104101
-10.01306046659788
-10.01970639695202
-9.999609176438474
-9.949370117096185
-9.86731041513261
-9.753504237806027
-9.609630629967535
-9.43867416558455
-9.244498338564428
-9.031347354706453
-8.803378983906638
-8.564342976040566
-8.317477592347434
-8.065623008949022
-7.811478199084013
-7.557886763148772
-7.30804691843147
-7.065593461363097
-6.834555664754985
-6.619221281220478
-6.423935918384398
-6.252862256388653
-6.109727931093559
-5.997598825868229
-5.9187132850398
-5.874396615071608
-5.865048970199656
-5.890172467893254
-5.948386747582155
-6.037391064767491
-6.153868609678736
-6.293372302179387
-6.450251465571219
-6.617670147496891
-6.78774786719138
-6.951836990945785
-7.100936301714237
-7.226219796637847
-7.31963389133124
-7.374494737085876
-7.38600896494281
-7.351649231309423
-7.271340821122318
-7.14744961656379
-6.984584578575212
-6.789222599699375
-6.56914329105537
-6.332667009721794
-6.087744901111748
-5.8410251503031
-5.597061027379221
-5.35781188003722
-5.122537779826922
-4.888128938815301
-4.649850844409294
-4.402423203019772
-4.14129234530172
-3.86391676217998
-3.570864314844867
-3.266512079776748
-2.959166600014825
-2.660514547404862
-2.384456621799041
-2.145509809813526
-1.95703853601483
-1.829594320518329
-1.76962548654232
-1.778765104535583
-1.853805873567234
-1.98733712256558
-2.168896332441271
-2.386410322604207
-2.627667811991785
-2.881574831125418
-3.139015605484753
-3.393261695367016
-3.639981166696321
-3.876949393958633
-4.103562696579957
-4.320243997771956
-4.527827205783421
-4.727007636527735
-4.917936132426915
-5.100010102000041
-5.271878663602221
-5.431639599108706
-5.577178330591904
-5.706595226435389
-5.818676126276205
-5.913356309852891
-5.992101446197912
-6.058101494108086
-6.116176707239854
-6.172344950456083
-6.23308567143936
-6.304424460171196
-6.391015923207028
-6.495405263028984
-6.61761019934595
-6.755104166259143
-6.903213247214336
-7.055868656952833
-7.2065855349059
-7.349475164546337
-7.480063159706303
-7.595710167682395
-7.695529536051191
-7.779845713849592
-7.849375995960327
-7.904381624717404
-7.94400398747589
-7.965917144279704
-7.966347486548321
-7.940462350212578
-7.883092993547763
-7.789701470722213
-7.657424141144382
-7.485963412599522
-7.27810062955133
-7.039689038837942
-6.77913098896343
-6.506482239725844
-6.232397786029557
-5.967123240590597
-5.719671440839602
-5.497249508821493
-5.304952642265621
-5.145720963695593
-5.020535038769058
-4.928778186545843
-4.868634827596961
-4.837374614744644
-4.831430804867827
-4.846298223295435
-4.876380323292832
-4.914950408783043
-4.954356476736967
-4.986515217520552
-5.003641615474901
-4.999097399334246
-4.968241308352581
-4.90918549231199
-4.823345301178867
-4.715620413763111
-4.594037841697969
-4.468784023924865
-4.350732589224538
-4.249739448672065
-4.173042199981682
-4.124063071530192
-4.10182443058549
-4.10108092566775
-4.113163559447857
-4.127422301555357
-4.133049042193026
-4.120969424113365
-4.085434306353871
-4.024960462664702
-3.942396837088949
-3.844106534686043
-3.738472821873037
-3.634071499091481
-3.537877919445406
-3.453829302835869
-3.381978869745929
-3.318374675373406
-3.255682916481518
-3.184459419172902
-3.094856017701143
-2.978444678709174
-2.829790700768434
-2.647451915342163
-2.434230841680488
-2.196704308436912
-1.944209817840981
-1.687528740887367
-1.437494514985985
-1.203722170196752
-0.9936334417224407
-0.8119306723326967
-0.6606221418336005
-0.5395976943095465
-0.4476078157426572
-0.3833643976757238
-0.3464248844815372
-0.3375837390066616
-0.3586556287169609
-0.4117119607050491
-0.4979441427226737
-0.6163660734147646
-0.7625907278081016
-0.9279471192380708
-1.099203023903076
-1.259079425564668
-1.387588753628612
-1.464045256467328
-1.469437684256053
-1.388769071411833
-1.212983199283761
-0.9402057675381524
-0.5761733518519857
-0.1338275153165057
0.3678955713899341
0.9059763345858384
1.455686885368685
1.993064858973689
2.497089804555715
2.951255691949956
3.344396876493743
3.670790752751157
3.929672727617852
4.124342707845175
4.261036299762121
4.347708905741889
4.392860052379937
4.404511472626954
4.389428027702253
4.352622032396291
4.297123715231271
4.223965628109656
4.132334181492939
4.019872120504558
3.883137640127285
3.718217014187034
3.521454420068532
3.290226747921185
3.023670107816811
2.723264483086155
2.393198128765248
2.040453750476718
1.674581841946684
1.307160195511611
0.9509863629100872
0.6191010682576138
0.323772292318076
0.07556181336839751
-0.1174480296293703
-0.2502405009275648
-0.3212658419851002
-0.3326585441520327
-0.2902444241609331
-0.2032807804273276
-0.08387875161488773
0.05387871701912292
0.1950235879631698
0.3248490638830197
0.4299882506003517
0.4993459141915074
0.5248371091935584
0.5018897713838592
0.4296616386681966
0.3109283796368075
0.1516280047942755
-0.03990164803236797
-0.2538927080479433
-0.4801899457666813
-0.7092522142202298
-0.9330441065007989
-1.14576718213545
-1.344358596263657
-1.528661187195131
-1.701188932467261
-1.866488960355856
-2.03020377417374
-2.198014381515453
-2.374665882633695
-2.563235096441323
-2.764710757389078
-2.977872252373067
-3.199426289432884
-3.424379304481203
-3.646617832753567
-3.859603294776465
-4.057005915057869
-4.233087677811811
-4.382737992987741
-4.501223073802319
-4.583834784544019
-4.625653241010604
-4.621576019742075
-4.566662007844978
-4.456741744475495
-4.289192372626289
-4.063755294808695
-3.783249489484456
-3.453990150309421
-3.085704694695
-2.690810020002967
-2.283088728638957
-1.876004800465016
-1.481023002358547
-1.106290690950332
-0.7559361303326291
-0.4300897562690003
-0.1255869109315851
0.1628049002007042
0.4408610569636748
0.7133433194997689
0.9827009476894784
1.248304485824006
1.506392931356606
1.750734360073297
1.973804895281928
2.168183325349982
2.327871808008411
2.44933483491413
2.532141397941689
2.579175743338876
2.596436059428864
2.592466177031396
2.577492400732294
2.562392261256015
2.557677631870232
2.572666123595146
2.614913542792905
2.689846760707793
2.800470414303788
2.947056101907842
3.126806969560358
3.333566404163109
3.557686113668524
3.786173674878244
4.003198187688364
4.190975617316761
4.331022849732664
4.405753910219228
4.400340598928618
4.304648447394983
4.114945081204105
3.835052232733309
3.476694459652229
3.058928774670408
2.606673668411468
2.148484428097473
1.713823157566118
1.330122911770713
1.019966232915662
0.7987251933510264
0.6730269747194608
0.6403492554834715
0.6898708988141965
0.8044512535161135
0.9633948920335036
1.145556416561837
1.332347802588568
1.510284129709919
1.672809878062145
1.821264216995662
1.964951096862025
2.120381842841159
2.309869672640665
2.55976183093918
2.898639960615577
3.355755298872316
3.959811095294843
4.738042734437559
5.715448978240263
6.914003696908254
8.351702916504852
10.04136616561327
11.98919654926227
14.19317451098223
16.64141142966287
19.31067055158952
22.16540438910275
25.15778987213859
28.22922566000157
31.3135205352927
34.34164143512499
37.24754999451343
39.97437423803637
42.47994321450791
44.74066507630467
46.75291238565457
48.53136180844688
50.10404665427341
51.50442257994642
52.7616881995302
53.89162560910924
54.89061860126718
55.73482052867006
56.38498838392136
56.79599806883996
56.92890338735615
56.762591116621
56.30169387112335
55.57763551021763
54.64049330775075
53.54082646612445
52.30315555924523
50.89636180680308
49.20940673678321
47.04111739570259
44.10941072827944
40.07992832746464
34.6093511161658
27.39591267760823
18.2282848801654
7.023552338130434
-6.154162203497685
-21.10024955306203
-37.50275592555641
-54.99732034995716
-73.23198913390905
-91.92500959110778
-110.8996477971648
-130.087579121094
-149.5025265182023
-169.1933604648443
-189.1887675979805
-209.445511340426
-229.811291798357
-250.0111193032724
-269.6617870584856
-288.3125636164364
-305.5031598025357
-320.8244775881016
-333.9660332685926
-344.7379532571335
-353.0640636891886
-358.9518764732355
-362.4509005520567
-363.6111666487288
-362.4511891502935
-358.9417620201251
-353.0095666945601
-344.5610002245276
-333.521455345511
-319.8804154079994
-303.7305622044534
-285.2906800961435
-264.9068870310001
-243.032807580907
-220.1944244120092
-196.9477929131242
-173.8372954314042
-151.3598706996912
-129.9383828316331
-109.9056892535095
-91.49954020241056
-74.86680495573124
-60.07412410891111
-47.12160094677969
-35.95669820937884
-26.48666788230699
-18.58900859845731
-12.12020753084842
-6.92329874994454
-2.834680990465577
0.3096486721461157
2.668593515837687
4.391496681941144
5.614994612299899
6.461290115590709
7.037718015444247
7.437215510354798
7.739103974014194
8.00957562501521
8.301523246746456
8.653744982866883
9.08988768578044
9.61764281665037
10.22872412857164
10.90010229242809
11.59682184695041
12.27644608297649
12.89481353934873
13.41242399038271
13.80046668227564
14.04536281018381
14.15085864727898
14.13721243709574
14.03768791307155
13.89311177787339
13.74551822935182
13.6319501410942
13.57941341953666
13.60178956944516
13.69917613765979
13.85968275514562
14.06322830842246
14.28643691015511
14.50745149285752
14.70954027392088
14.88280334344227
15.0239058430347
15.13427182880799
15.2174099513325
15.27608523351726
15.31003393469846
15.3148393214226
15.28236387673535
15.20275980943916
15.06763135635465
14.87350860933132
14.62456430148232
14.33362184942442
14.02099161310641
13.71133278255766
13.4292607081284
13.19463807477135
13.01848474173371
12.9003532943954
12.82783580335833
12.77851287440102
12.72415307035092
12.63643428816571
12.49301300706765
12.28255933871922
12.00755565295769
11.68423395849726
11.33977724237278
11.00750792368708
10.72107536951604
10.50872592128756
10.38871410025834
10.36675452498097
10.43603791675075
10.57978557651153
10.77572563305063
11.00137266012157
11.23874021931657
11.47727857511874
11.71441132550499
11.95379235642364
12.20197314061065
12.46441148118364
12.74178014095515
13.02747716400818
13.30705872603846
13.55992951027707
13.76308360893467
13.89612223768582
13.94631932838778
13.91233460590265
13.80545139026141
13.64791688594884
13.46878938625547
13.29828386893822
13.16181241478642
13.07486181510475
13.03968879792532
13.04455106976659
13.06578097977626
13.07246603238915
13.03290073534017
12.92144180798426
12.72415092175874
12.44186099437281
12.0900345720932
11.69566797699489
11.29213995060621
10.91316588165788
10.58702580730435
10.33212885566056
10.15475893132453
10.04946755706424
10.00205119859898
9.994433402555881
10.01019466416119
10.0392012044237
10.08002207890611
10.139568596106
10.23027642674455
10.36576329595557
10.55610661337793
10.80384188567413
11.10161930493131
11.43216940457929
11.77079667824389
12.09007840023095
12.36585120489418
12.58303800366745
12.73966014029021
12.84775434963993
12.93082570858754
13.01848740628296
13.13959651545812
13.31537232446812
13.55387369443926
13.84697524947353
14.17059954914684
14.48839270104022
14.75833133801798
14.94102738987296
15.007912161858
14.9473023673235
14.7668234780599
14.49170605434486
14.15960072809893
13.81327894587378
13.49278834226109
13.2285373760974
13.03657349732054
12.91696785559061
12.85567165260806
12.82951027268364
12.81322934472867
12.78685882707891
12.74140547344771
12.6812976931014
12.62302505003269
12.59055432184027
12.60884738352221
12.69702246488905
12.8626021346187
13.098065189318
13.38056195071619
13.67511659090767
13.94094974375625
14.13977717759947
14.24423289936297
14.24425726125779
14.14970964159794
13.98856255734165
13.80129272858918
13.63292774103318
13.52446881383643
13.50532089336473
13.58814400726323
13.76718923821342
14.02061547903218
14.3165069171619
14.6214162154311
14.90943730865328
15.16942908400994
15.40842544006673
15.6504333236752
15.93118205998091
16.29031596497169
16.76282737424133
17.37144198851244
18.12143088955512
18.99895074376806
19.97343706471865
21.00378739175633
22.04713302362866
23.06810661403869
24.04608424836715
24.9783285570309
25.87824648176942
26.76949019363118
27.67765608259336
28.62162581678781
29.60640551065309
30.61897922034067
31.6282589994919
32.58956973024195
33.45319779584633
34.17544657711717
34.72964689042433
35.1141458188559
35.35489235209472
35.50179646183641
35.61985522358415
35.77727765284435
36.03318935730895
36.42725144888326
36.97307660974376
37.65675866484575
38.44103501811885
39.27452545973262
40.10424729549289
40.88849368544845
41.60669681945715
42.26356428089667
42.88650788060066
43.517397357102
44.20103467958746
44.97311256942523
45.85013094362786
46.82326009378046
47.85756703290155
48.89719706465997
49.87593162604815
50.73114819245751
51.4179465297542
51.91967605816943
52.25185220557865
52.45841160140835
52.6015413742163
52.74785870175447
52.95410510759569
53.25514744236695
53.65650684735489
54.13301139657731
54.6342753161594
55.09640219815277
55.45771909243781
55.67488794031978
55.73509925887397
55.66086569810824
55.50612905288055
55.34497918421058
55.25605398570894
55.30618202574625
55.53645919095649
55.95332018267627
56.52644769512622
57.19436463986635
57.8771295722533
58.49380827231268
58.98074999328213
59.30592187417187
59.47538253942714
59.53035025120013
59.53614337417366
59.56620317936798
59.68494704228944
59.93283169806205
60.31640553840431
60.80543917951449
61.33817303854804
61.83415153469151
62.21220412713389
62.40938115025968
62.39585524428528
62.18168855906956
61.81385361835639
61.36482771081563
60.91607068380449
60.54022746340576
60.28548769453807
60.16490848417381
60.15282900051052
60.1894900214425
60.19343382683946
60.07936858544315
59.77743117708808
59.24895492096119
58.49465024917875
57.55345134465308
56.49307056320826
55.3952165456892
54.33897284735198
53.38549033123192
52.56661915035706
51.87956288385298
51.28878745976438
50.73506578292063
50.14984845586274
49.47158649532924
48.65987317668352
47.70389235601358
46.62355524975143
45.46395567717948
44.28530484245099
43.15092663387797
42.11561736258619
41.21630116973559
40.46659188235652
39.85632792591809
39.35617672794164
38.92614839661805
38.52571855710776
38.12275502696932
37.6989372289483
37.25070074591179
36.78625279073849
36.32016689481866
35.8672342271481
35.4369305783375
35.02950637978749
34.63446074233973
34.2318154793882
33.79599534137811
33.30136782655323
32.72791798053317
32.06544551014156
31.31519298848361
30.4887330280593
29.60481160660881
28.68528624701595
27.75123539918945
26.81997070168704
25.90335558554617
25.00761881382779
24.13461424099881
23.28411947388539
22.45640966888321
21.65421469004563
20.88338767902853
20.1521043541424
19.46894959924271
18.84059634121216
18.26983224773376
17.75448624367079
17.28748960999726
16.85802477368892
16.45352211755119
16.06210288843029
15.67490096532889
15.28762251324891
14.90085062542445
14.51897578499698
14.14807721972045
13.79339365524852
13.45709537752771
13.13692702853801
12.82602126136277
12.51387975949076
12.18826768757869
11.83761521728573
11.45343431106792
11.03221340376456
10.57631106105816
10.09361104822525
9.59607538813693
9.097661774342283
8.612201893359169
8.151752363272461
7.725723773675957
7.340854452247628
7.001872070801052
6.712532876668522
6.47668613842025
6.299043584719621
6.185382062534826
6.141995338119162
6.174397041283791
6.285530326514528
6.473936493888144
6.732376426808064
7.047293493728206
7.399328032158052
7.764895192157359
8.118640048514127
8.436415727691129
8.698321114791703
8.891279002618152
9.01063397072528
9.060359900511362
9.051739041916855
9.000743228114459
8.924659523089602
8.838642706580579
8.752840766688282
8.670590664190968
8.587976217351256
8.494802921656849
8.376798106075094
8.218620868045555
8.0070923823009
7.733972949283753
7.397685298934549
7.00364637669642
6.563240319761943
6.091790264752902
5.606060450985038
5.121833403430132
4.652007510245295
4.205502608501474
3.787081401653808
3.398012364141602
3.037333646508119
2.703350829093027
2.394947049012107
2.112344856504067
1.857147353925649
1.631733451597511
1.438273564659049
1.277700380856562
1.148931450256029
1.048552263230872
0.9710650917175954
0.9096898270595198
0.8575717142978974
0.8091424692298986
0.7613319613687882
0.7143443717577619
0.6717935353720994
0.6401341487983819
0.6274931233790069
0.6421369522604655
0.6908708174462964
0.7776599985556629
0.9027156277811997
1.062208204974424
1.248666400229741
1.451995203256735
1.660933025693533
1.864685081308808
2.054427967438042
2.224390627820115
2.372296297787636
2.499085813920143
2.607995364610279
2.703197494837029
2.788306320514239
2.865071307618805
2.932534668238349
2.986827168258813
3.021649300240676
3.029342900185176
3.00231937318829
2.934510973219955
2.822499555441517
2.666072547915221
2.468118841395232
2.233942099758391
1.970194371773069
1.683701176580268
1.380449573884541
1.064949748503558
0.740085755072633
0.4074666426467397
0.06818191988005612
-0.2762387770847007
-0.6229320847779115
-0.9671317156936039
-1.30207328074789
-1.619369730562947
-1.909733538350535
-2.163866990880059
-2.373339359981926
-2.531300221902195
-2.632929972852928
-2.675587374960754
-2.658669096680137
-2.583249260578913
-2.451619779391921
-2.266887957385908
-2.03277210045983
-1.753650910970264
-1.434804600297475
-1.082705864882297
-0.7052146265213375
-0.3115777179540137
0.08780871611819961
0.4818667998563976
0.859485187943982
1.210271592771827
1.525320380223469
1.79788715829561
2.02383475891323
2.20172307140238
2.332500473653043
2.418887966701078
2.464647158904779
2.473939963395696
2.450937618706979
2.39975744234205
2.324715636789157
2.230799928386908
2.124219222339765
2.012886791452694
1.906700269925528
1.817472522347768
1.758384970357898
1.742932114494829
1.783480024832964
1.889687174836044
2.06707584931782
2.316006741719774
2.631233481608532
3.002120545322037
3.413516557630929
3.847201065921031
4.28375325278179
4.704598788258632
5.093897136057075
5.439915417387197
5.735650879029372
5.978667546359754
6.170298916646408
6.314472300201106
6.416437207521844
6.481654100897816
6.515029716673203
6.52059027907355
6.50159915198879
6.461053587925147
6.402404328814583
6.330241581344392
6.250661014361536
6.171124108004525
6.099813086844684
6.044644356471273
6.012184967970042
6.006725473183002
6.029722422535586
6.079741434643699
6.152928698263148
6.243949135122054
6.347253992590021
6.45845312302238
6.575483429770216
6.699259393373941
6.833613413716836
6.984531703751967
7.158860469428161
7.362745305352425
7.600095378793856
7.871354098016811
8.172796728252214
8.496464913942747
8.830730915969427
9.161391871025733
9.473113125538575
9.750964249243784
9.981770707983834
10.1550853666925
10.2637288627526
10.30396250473528
10.27540064077066
10.18077751387833
10.02568244048814
9.818337917255299
9.569408958853325
9.291761977711397
9.000091382386088
8.710364870557008
8.439045179685946
8.202047260760786
8.013445812908149
7.884050171355033
7.820039481180567
7.821866754841364
7.883625500139963
7.99304800245844
8.132248288248764
8.279219548763585
8.40996951330017
8.501060221377085
8.53222030214808
8.48863033189505
8.362491000399535
8.153608562795466
7.868934749030085
7.521188625919409
7.126817218274827
6.703629642422639
6.268471298030683
5.835276178806491
5.413751199129157
5.008832289555245
4.620923151866116
4.246787538369562
3.880840132233629
3.516527193628828
3.14754419368109
2.768763921075054
2.376859307370702
1.970658082952932
1.551278520072022
1.122089114000998
0.688519723426995
0.257742184049118
-0.161758889192194
-0.5607088263385547
-0.9296705544447768
-1.259814514332271
-1.543839763292173
-1.776955648034134
-1.957725147585295
-2.088545691037853
-2.175625170093436
-2.228440660538479
-2.258775314094272
-2.27948811716338
-2.303189663397371
-2.340993412166544
-2.401501674848955
-2.490170868947263
-2.609162375446647
-2.757692964222703
-2.932752903837289
-3.12993275646893
-3.344088869741368
-3.569698110002347
-3.80091626438223
-4.031464211686231
-4.25449362977723
-4.462559962995557
-4.647791517529895
-4.8023061790272
-4.918891479080546
-4.991919142971734
-5.018389915115379
-4.998896086427116
-4.938212598562372
-4.845275479075698
-4.732483503852019
-4.614460317929286
-4.506532276535187
-4.423183220681414
-4.376679367932493
-4.37598183706614
-4.426034012401459
-4.527522175716589
-4.677199534997063
-4.868772684525426
-5.094181096031214
-5.344954749916082
-5.613327920303914
-5.89292456136316
-6.179006537060512
-6.468389933206376
-6.759159813108512
-7.050273192720105
-7.341087465681445
-7.630848415775399
-7.918225564655991
-8.201022836102803
-8.476141293348562
-8.739732737383783
-8.987362223954696
-9.214005917697047
-9.413850969388045
-9.580031258844716
-9.704523921785482
-9.778411712310405
-9.792606865687988
-9.73899395894648
-9.611850593248692
-9.409363500745556
-9.135032829838462
-8.79870796307689
-8.416942136395495
-8.012371898888984
-7.611994703005179
-7.244501084595628
-6.937081349976144
-6.712252333417054
-6.585223068519589
-6.562195108531989
-6.639831346512804
-6.805959834295481
-7.041417969575061
-7.322782115931249
-7.625560768287948
-7.927285105364108
-8.209898870881089
-8.461015036932244
-8.673936616266065
-8.846677760078775
-8.980423258923395
-9.077897539695908
-9.14203084482857
-9.175171064429327
-9.178934371114373
-9.154640334053525
-9.104145654436008
-9.030773836208587
-8.939957816090187
-8.839235044225632
-8.737416499452559
-8.643046255314681
-8.562530214475492
-8.498419107793133
-8.448273537771605
-8.404387102706062
-8.35446605895699
-8.283197941184785
-8.174498733153838
-8.014104829522793
-7.792070373510716
-7.504671296098683
-7.155271882750019
-6.753924590519294
-6.315792147040793
-5.858760214375264
-5.400738724325454
-4.957124059581439
-4.538779989105431
-4.150770130198939
-3.791977334505798
-3.455660250298899
-3.130886064538443
-2.804626907540906
-2.464152319960326
-2.099272997180853
-1.704057195364349
-1.277822444159402
-0.8253948460081637
-0.356744195032633
0.1138598000767416
0.5690320982186745
0.9896755839335545
1.35648179675618
1.651395091390524
1.858909014544076
1.96711441751525
1.968510439955056
1.860656337297379
1.646713423632443
1.335815071399583
0.9431037783465551
0.489262494618705
-0.0005646492389379115
-0.4984675171812474
-0.9759874864768593
-1.406674928483995
-1.768728131958257
-2.047394218432026
-2.236771246988224
-2.340650062748659
-2.372122376668672
-2.35188986783655
-2.305485687359913
-2.25984495345363
-2.239751489262945
-2.264653616075155
-2.346236839926025
-2.487004462824855
-2.679963214571909
-2.909349979626386
-3.152184179136213
-3.380311244476151
-3.562546173222788
-3.66656866063486
-3.660372747006989
-3.513275644212693
-3.196641292695835
-2.68451681261334
-1.954335730073937
-0.9877655324623431
0.2282918009393838
1.700587094101042
3.428378354467395
5.402377173291808
7.603980447463771
10.00506141628922
12.5686271195618
15.25055771764472
18.00242494650319
20.77514464202008
23.52304818703243
26.20785763897016
28.80199293187202
31.29066161423422
33.67229232889756
35.95699579693304
38.16286772277232
40.31027146225129
42.41489603821088
44.48114753586906
46.49776311314685
48.43709166470515
50.25847700907231
51.91511117429919
53.36286557757931
54.56898913445222
55.51829558694508
56.21464360806095
56.67603514444568
56.92256175246094
56.95815755631045
56.74978711727502
56.21018995818672
55.19076031867991
53.48873403761196
50.86879463100245
47.09556028383398
41.97113521665349
35.37066757507459
27.26840499391864
17.74745282280917
6.988585566924544
-4.762928467067713
-17.2482532466872
-30.25306720258665
-43.65754134575582
-57.46360309093841
-71.79162048608815
-86.84795152092111
-102.8719104238364
-120.0737360244853
-138.5755341068558
-158.366499691328
-179.2817334936829
-201.0097784365597
-223.1278377338577
-245.1566655924973
-266.6211275038482
-287.1000573893023
-306.2525572610733
-323.8165490195163
-339.584993169969
-353.3711022874275
-364.9745515632297
-374.1582077749969
-380.6420688918155
-384.1183521881334
-384.2875432487768
-380.9094739246087
-373.8581501013294
-363.1666236226624
-349.0500404268282
-331.9007389109197
-312.2568605969215
-290.752389686837
-268.059544616527
-244.8336520259071
-221.6676709352801
-199.0605253481202
-177.4011200703461
-156.9677034490061
-137.9396947943869
-120.4169473288121
-104.440700140425
-90.0114967661955
-77.10156697635996
-65.66158478263694
-55.62343289467894
-46.90123978305127
-39.39265139552992
-32.98146635766262
-27.54186469909292
-22.94382234592512
-19.05898323050073
-15.76615567476906
-12.95567015106444
-10.53211365498158
-8.415390117711075
-6.540466715818465
-4.856365425968873
-3.324899666991246
-1.919452857632997
-0.623887625112447
0.5685034278728559
1.656245020164452
2.631429373902976
3.482193890761942
4.195943220653532
4.76305428377789
5.180515288930461
5.454755790461639
5.602953018193411
5.652396972228767
5.63794946524921
5.598036577063699
5.569851714455686
5.584551822823709
5.663258255743957
5.814596082172502
6.03427362391248
6.306834722709836
6.609266508137664
6.915700846874546
7.202156338031493
7.450287217873686
7.649459780209729
7.796991847088393
7.896822289636258
7.957119874454454
7.98745954034384
7.996249795422505
7.989040752025961
7.968129967287307
7.933547375595758
7.885108816366731
7.824859681702259
7.759024374257421
7.698682826085211
7.65881776915588
7.655912491766649
7.704668370229265
7.81456238328558
7.986971692869288
8.21353687426111
8.476278225765157
8.749674123654065
9.004498543481953
9.212777447426626
9.3528522423255
9.413377886714107
9.39527966275175
9.311230949970097
9.182858940275212
9.036354638912616
8.897365734930334
8.78609046469923
8.713456303880395
8.679120660325868
8.671718114087344
8.671333881601713
8.653689462698408
8.595089363072303
8.476954480321002
8.288905428227919
8.029838071326736
7.707020590255356
7.333667975811499
6.92563870910816
6.497959657891886
6.061901766035814
5.623251956611343
5.182195396711261
4.734862301477882
4.276168831613813
3.803177907586478
3.317980560863399
2.82921651851527
2.351804284342664
1.905001016393056
1.509298238912619
1.182813917780205
0.9378693101015391
0.7784187572230038
0.6989090360614051
0.6849451013843735
0.7158241220239265
0.768570862608023
0.822636831510243
0.864125754243487
0.88850010162417
0.9011994505283984
0.9161943350275894
0.9529308041238704
1.032330765805224
1.17260290849462
1.385644218043911
1.674731147166756
2.033979521958914
2.449706432724387
2.90337865433957
3.375364448393554
3.84842527513461
4.309993255697246
4.752754816628427
5.173628709525412
5.571612345543328
5.945124840551681
6.289521096860824
6.595455631314532
6.84867322678248
7.031532851573983
7.126159211666726
7.118636837022373
7.003229984734972
6.785425117834184
6.482829454502754
6.123573335983961
5.742554430462644
5.376311157730337
5.057454457342799
4.809584981332192
4.643599991717304
4.556183187170149
4.530958737544602
4.542280992541115
4.561014961856575
4.561083336359819
4.525243593375823
4.448731325725806
4.340041097741484
4.218902170114299
4.112093126558743
4.048018260135804
4.051064995662953
4.136788059768689
4.308883189320839
4.558636819350412
4.867054858168642
5.209231409797066
5.559852952069474
5.898323603685524
6.212120631270249
6.497639043239742
6.75860634898906
7.002739906483486
7.237562614758013
7.466347784972014
7.685164713339004
7.881883311704538
8.037661683096907
8.130886624486092
8.14285047031003
8.06378954873875
7.897568625619243
7.663555191843807
7.395060707631546
7.134720903108844
6.927880793846834
6.815308888469326
6.82656529772958
6.975244941290954
7.257082458770794
7.651470749574622
8.126314116908572
8.645357586010384
9.176352001669756
9.697972330398766
10.20366598322971
10.70156227921806
11.21074654318986
11.75504255566908
12.35578731943423
13.02511738670435
13.76118792440991
14.54647361773933
15.34977060689531
16.13175378843901
16.85303970042414
17.48285654131478
18.00600591574809
18.426184398962
18.76486980060346
19.0563062578241
19.34001759450746
19.65255998399067
20.02014516553476
20.45357224102471
20.94659413690248
21.47830537736345
22.01934097237922
22.54068926434225
23.02296852717001
23.46355113002181
23.87937535532505
24.30460919041058
24.78387836771508
25.36281897266812
26.07803723836014
26.94843278006194
27.96957472817389
29.11243754463206
30.32716958411024
31.55161726895859
32.72313723945013
33.79108313075945
34.72679666687706
35.52847013872932
36.21980864243969
36.84324918227605
37.44973559376889
38.0874189122503
38.79147238736622
39.5768842197817
40.43569934328247
41.33955069454966
42.24730903473319
43.11634205985779
43.91455372180121
44.62972646560628
45.27330403412782
45.8775456184177
46.48707309299595
47.14722793186876
47.89202043102131
48.73416324771061
49.6592110179143
50.62528214568879
51.56903317137577
52.41735102167281
53.10270837881703
53.57868902397387
53.83155436325154
53.88453595073482
53.79368946012547
53.63661888538653
53.49702864343691
53.44850061914264
53.54055733011231
53.78951595005867
54.17598124929641
54.64986404488064
55.14240519329111
55.58294341890167
55.91652975906612
56.11775195471986
56.19699417581206
56.19768965353915
56.18580806025658
56.23460756555536
56.40817159443615
56.74693041113256
57.25783892063327
57.91125731523385
58.64561655221554
59.37948157295577
60.02877134340638
60.52513649614293
60.8306769997502
60.94504604281231
60.90338619036989
60.76630721249373
60.60493979396698
60.48456541051629
60.44995952335037
60.51506897269591
60.65910490901617
60.83025710387617
60.95679976328212
60.96349773005673
60.78945125618108
60.40267463554464
59.80749809794409
59.04316802436109
58.17467890730539
57.27865256788788
56.42756203756365
55.67527400046043
55.04641953124532
54.53163437654965
54.08992146349917
53.65805617683735
53.16522752015149
52.54948185865129
51.77175334641442
50.82392491475493
49.72932348122715
48.53634904575762
47.3074981983804
46.10649738195733
44.98602890724691
43.97817820611309
43.08935904988373
42.30081610080659
41.57470559089155
40.86438252719811
40.12628989628237
39.33029795887791
38.46587408810542
37.54291969653401
36.58777353846073
35.63598985033118
34.72380024377006
33.87996833602653
33.11946793794463
32.44014743171812
31.82308983550476
31.23663121050205
30.64310145264891
30.00660270112212
29.29987192430227
28.50866245622664
27.63296887915276
26.68538099112453
25.68746862950014
24.66523092836317
23.64447849837547
22.64684214882465
21.68699999410291
20.77154450217113
19.89956680707671
19.06460363960495
18.2572624320839
17.46776202479131
16.68781948155323
15.91165714924585
15.13622546829405
14.36091250825699
13.5870084269755
12.81708636193508
12.05438389790173
11.30227496189278
10.56393242599519
9.842216620689864
9.139715215464431
8.45879806532121
7.801585596336685
7.169826304548067
6.564761849700753
5.987082509351745
5.437045176968772
4.914758270028855
4.420563124660625
3.955407215340598
3.521123437036768
3.120557035444986
2.757484583976899
2.436272703336554
2.16126636011309
1.935976979927351
1.762220072168452
1.639385583343737
1.563996413785599
1.52964488142738
1.527329048472759
1.546158813641822
1.574360343105101
1.600462369232571
1.614498385483624
1.609030204860202
1.579821747672514
1.526069943166212
1.450202462434252
1.357340486074106
1.254569494399847
1.150153777607287
1.052789468089683
0.9709480385587976
0.9123338396938505
0.8834579067388826
0.8893068485247737
0.933069196004296
1.015888981082534
1.136647195982492
1.291804440858237
1.475354327680904
1.678939159119121
1.892172556526318
2.103192249635678
2.299427615330944
2.468520653842717
2.599296026244748
2.68264658736933
2.712205809998505
2.684727914388826
2.600169543501881
2.461527581704192
2.274516430714763
2.047170038215579
1.789441787621483
1.512849893925894
1.230176741635079
0.9551928340469493
0.7023510192391412
0.4863747205147729
0.3216488346955206
0.2213515009265599
0.1963587248412818
0.254068393242151
0.3973558954570092
0.6238616216983556
0.9257492382212663
1.290004053230898
1.699273004414875
2.133174352538064
2.569938907413644
2.988205469702169
3.368775124882094
3.696122725427654
3.959487859721958
4.15343705718104
4.277879809288463
4.337592848488625
4.341344635154431
4.300732211315603
4.228867947714122
4.139080434557145
4.043795977729967
3.95373308354003
3.877486048949375
3.821509530319866
3.790446700052374
3.787679146953573
3.815938383692638
3.877818497563166
3.97605646458562
4.113484387454972
4.292610887878626
4.514874869938205
4.779720205890957
5.083710969863598
5.419908168581479
5.777679424834774
6.143044204039614
6.499571418722455
6.829739762237169
7.116565363054851
7.345230198302299
7.504427916081994
7.587187836159972
7.591048682250169
7.517618269810794
7.371713399173727
7.160347390952424
6.891800072061532
6.574914866083172
6.21867325277437
5.832020505856479
5.423869785927558
5.003201711444979
4.579188560322941
4.16127628137018
3.759146139904719
3.382484045749971
3.04054178830433
2.74155701849217
2.492146679519408
2.296777075546133
2.157373393942027
2.073096757295469
2.040298239106844
2.052659586889123
2.10154842704827
2.17662826559327
2.266729329383499
2.360891872830354
2.449394280277596
2.524556472633668
2.581182596504901
2.616615147850888
2.630452281709156
2.624015688826768
2.599665956174868
2.560069279669819
2.507535923273092
2.443568241323091
2.368747757781575
2.283026826430554
2.186367811855106
2.079543198882755
1.964851406969842
1.846546789181921
1.730886448018031
1.625794629105214
1.540208066706633
1.483208033206964
1.463081611052776
1.486471532268825
1.557756055286682
1.678757235407927
1.848816024781807
2.065190091215222
2.323639925690472
2.619016150301591
2.945679363698401
3.297663382292299
3.668587472332498
4.051389792645967
4.437993550370754
4.819051775634962
5.183929975408607
5.521041975728218
5.818563790227663
6.065457121889636
6.25265666814742
6.374215377821574
6.428178941182997
6.417000940242316
6.347409943203917
6.229752369258633
6.076906015020744
5.902890818336994
5.721341379620259
5.544055329211016
5.379847360672984
5.233895504231334
5.107677593289933
4.999478978923126
4.905330375449224
4.820148777999783
4.738838207067787
4.657161279588226
4.572284097470805
4.482975501430356
4.389482415000616
4.29312867472744
4.19572626158584
4.098940792749448
4.003785379975952
3.910395136139491
3.818148293385818
3.726082741618431
3.63346743280532
3.540360390880238
3.448013034592542
3.359036044724869
3.277292757144341
3.207520780474034
3.154720083900687
3.123400239245544
3.116833721923794
3.13648653863249
3.181769316004246
3.250165563061324
3.33768072798784
3.4394743410202
3.550521158673396
3.666182466984671
3.782621979963452
3.897045028715289
4.00776607323634
4.11412409392902
4.216274979825741
4.314898445265864
4.410868709149453
4.504947115127393
4.597542100938415
4.688544950991538
4.777215477529116
4.862084668365687
4.940858982952843
5.010335802300375
5.066360295334238
5.103870992977951
5.117089299169693
5.099887426516923
5.046316456876211
4.951224742606941
4.810877650679932
4.623494745884394
4.389630279330006
4.112338830160384
3.797098200053513
3.451498859318316
3.084735802009348
2.706946339217813
2.32843800908384
1.958861418922134
1.606405029204532
1.277114429916748
0.9744602777901131
0.6992787491698969
0.4501589983967771
0.2242528696583881
0.01837085871753884
-0.1698514860947676
-0.340958563237523
-0.4930653607254683
-0.6217817433610396
-0.7207285648866464
-0.782599663216865
-0.8006196694909288
-0.7701619722255667
-0.6902370398711878
-0.5645551252610828
-0.4019303193670983
-0.2159204171880952
-0.02374955315099224
0.1553054818428158
0.3017975141685725
0.3979671260371807
0.4293165354742892
0.3857083230789866
0.2618833320181144
0.05738364690742066
-0.2240381148344938
-0.5753519865459129
-0.9872985313434045
-1.449332192206639
-1.950312068091123
-2.478887055444505
-3.023607812037432
-3.572864672153059
-4.114788310440911
-4.637238981617075
-5.127955573421938
-5.574882011027066
-5.966667509702065
-6.293322229130285
-6.5469602148849
-6.722491675783369
-6.818092444689454
-6.835308358953766
-6.778731536127643
-6.655292723417326
-6.473326071564888
-6.241630310263599
-5.968723423735623
-5.662387604843975
-5.32951638196444
-4.976254570122208
-4.608413548524492
-4.232086270845392
-3.854297655161084
-3.48347685974615
-3.129562315079529
-2.803630412578729
-2.517050210057136
-2.280292042741276
-2.101620936720346
-1.985937725937018
-1.933983523756378
-1.942042449781627
-2.002203497781092
-2.103165981875715
-2.231473307453579
-2.372957835910782
-2.514125710966256
-2.643233686316629
-2.750902425066151
-2.83024519156656
-2.876625363116575
-2.887238993041847
-2.860720101067713
-2.796905158514706
-2.696817414152627
-2.562870956170395
-2.399238612060398
-2.212259559993065
-2.01070068625777
-1.805675420362109
-1.610087332166493
-1.4375872926769
-1.301178463567341
-1.211725855566781
-1.176676089753374
-1.199251599067572
-1.278281700816193
-1.408711106211991
-1.582703589980863
-1.791139483884646
-2.02520854128913
-2.277767667831295
-2.544199002563767
-2.822642453456377
-3.113623426923681
-3.419212391350173
-3.741931955488012
-4.083654235111463
-4.444687257765398
-4.82315757695973
-5.214720161945224
-5.612595376372134
-6.007905131688586
-6.390215601923386
-6.748130758837887
-7.069793889066117
-7.343249784447793
-7.556728915063785
-7.698976400006972
-7.759753886484564
-7.730594536651367
-7.605783304399053
-7.38339799716411
-7.066172574235869
-6.661987346077723
-6.183884834083679
-5.649558421668121
-5.080274168394065
-4.499248515410242
-3.929635151241526
-3.392399356981521
-2.90440815868345
-2.477034596566609
-2.11548990636402
-1.818972940587064
-1.581580258732535
-1.3937976498789
-1.244327137014784
-1.121971547868581
-1.017271305102932
-0.9235942043101575
-0.8374764895769515
-0.7581989516926274
-0.6867773850372734
-0.6246728975592023
-0.572554476493462
-0.5293921011118561
-0.4920611830513031
-0.4555216963856945
-0.413509082978627
-0.359563369098779
-0.2881527654167454
-0.1956202946438775
-0.08070306395039578
0.05553023262457676
0.21031155343187
0.3801876735928299
0.5621154665531063
0.7543254402704239
0.9567182827125054
1.170678919437123
1.39832156645184
1.641314693578726
1.899554408032686
2.17001262891023
2.446066516942883
2.717529777414174
2.971460386452223
3.193635245892002
3.370419361887401
3.49067265929973
3.547351227332087
3.538550278666665
3.467856987853479
3.343996727807974
3.179854824578695
2.991031813067063
2.79414082398535
2.605087699251039
2.437578176151725
2.302042365244141
2.205053506832944
2.14919336114457
2.133234883471042
2.152497172823738
2.199267545762412
2.263252466717817
2.332085090579576
2.391955287968249
2.428414728387676
2.42735662505277
2.376123688620741
2.264678873869109
2.086752760945453
1.840840286543818
1.530884808453493
1.166492449746837
0.7625697989601706
0.3383582517106638
-0.08407091278044976
-0.4817133649631925
-0.8327157262111684
-1.118418519811514
-1.325123514156087
-1.445345496735223
-1.478330332553992
-1.429715410084902
-1.310369013684123
-1.134608499007806
-0.9181076271005317
-0.6758431388414382
-0.4203982292761287
-0.1608437461897765
0.09771154247480601
0.3539225651134803
0.6094500279876474
0.8677761691005355
1.132782185320375
1.407326290573158
1.692059763078106
1.984649971743653
2.279481798649481
2.567821890702987
2.838369814256088
3.07809259955908
3.273242209045883
3.410471264081584
3.477968382477609
3.466525721222564
3.370448690758081
3.188243346064797
2.923057060070391
2.58286382760663
2.180368423235233
1.73258831334599
1.260084252541777
0.7858411586513313
0.3338424864814626
-0.0725577204161352
-0.4122972364959754
-0.6681214651297013
-0.8278280746445178
-0.8851822106913527
-0.8404550660925261
-0.7005106099037837
-0.4783657188200431
-0.1922051255336775
0.1360859597537728
0.4827338556159729
0.8240365569984126
1.138249843181745
1.407211254720502
1.617594648960657
1.761749820443262
1.838081832181192
1.850906728810213
1.809758337058147
1.72822226980704
1.622476363364697
1.509768697244818
1.407058398344037
1.329990675372796
1.292286547552564
1.305529045725984
1.379263616570242
1.521315228584714
1.738229999057423
2.035746852936691
2.419207803678725
2.893855881420601
3.465045698017942
4.138461355555004
4.920458951158498
5.818607669889419
6.842396878426223
8.003945781047229
9.318461165071293
10.80416852941912
12.48148094602266
14.37126060229465
16.49216264260824
18.85719645987144
21.46978286923573
24.31977224787089
27.38014525620478
30.60533947556015
33.93211075040071
37.28341050866567
40.57508507278055
43.72456714384406
46.66024589449662
49.32986080500712
51.70618258688041
53.78852042721918
55.59909366957491
57.17396328227321
58.54931240967719
59.74553734492156
60.75321410705465
61.52536819805592
61.97901504418894
62.00635691319979
61.49358955702082
60.3435918460026
58.49769847208728
55.95125909500091
52.75803640711831
49.01979826194395
44.85985232795661
40.38322969262177
35.63148347229679
30.54432158376698
24.94034982948147
18.52414912337028
10.91943121744755
1.721910893961689
-9.437661278811008
-22.83110625864449
-38.58210341194421
-56.63702157055962
-76.76393703988423
-98.58124952296258
-121.6104618583635
-145.3405137915796
-169.2866925712478
-193.0289409054779
-216.2223471876351
-238.5825023223914
-259.8552028509877
-279.7818593421266
-298.0708301403424
-314.3831618823509
-328.3389539110836
-339.5463881474876
-347.6493046888284
-352.3829515212037
-353.6236644060212
-351.4186545412008
-345.9873303961638
-337.6939268577402
-326.9990960324404
-314.4022880279293
-300.3864229731317
-285.3734223152535
-269.6961233952607
-253.5895737919775
-237.2016259869531
-220.6187600462988
-203.899489623769
-187.106270072627
-170.3282178940787
-153.6905616811437
-137.3510679653079
-121.4870601516993
-106.2780914707068
-91.88890279496609
-78.45582083164068
-66.07817798611823
-54.81512710640188
-44.68730731908526
-35.68205704590539
-27.76041466676856
-20.86422964320442
-14.92229728526597
-9.855195457079915
-5.579056291158375
-2.008677360579012
0.9397361278444696
3.346109341944794
5.284420698484956
6.821266679677262
8.015369610080656
8.918212623578547
9.575748788266438
10.03084485997275
10.32583484743573
10.50436966175959
10.6118072153865
10.69375970318211
10.79296823714689
10.94515327860978
11.17472861288573
11.49129703019686
11.88775335535018
12.34060413777888
12.81275022792544
13.25851961688154
13.63026350457851
13.88541423894908
13.99268319293308
13.93621370700607
13.71701876461992
13.35171223067656
12.86909072312777
12.30539587274022
11.69914506767122
11.08637433822123
10.49702094499798
9.952966621906661
9.467954901294412
9.0491879329736
8.699957408028899
8.422352427801762
8.21912422912984
8.094192261985414
8.051818654653044
8.094881556222141
8.22283996865682
8.429980296390214
8.704460849923516
9.028539306335885
9.380163574867739
9.735827554993612
10.07424523704563
10.38003834451339
10.64644121281317
10.87619403053966
11.08031253632955
11.27503688070741
11.4776933313099
11.70235300599264
11.95612369567307
12.23676826547961
12.53213667198118
12.82161667837488
13.07944650442238
13.27930729949124
13.39920758726569
13.42547804755591
13.35490059300283
13.19456793790802
12.95972445468485
12.67027823719143
12.34681945398057
12.00694345477899
11.66256499592687
11.31872959202309
10.97415749759778
10.62340529376815
10.26012829692831
9.880549490945967
9.486064526425896
9.084119701972805
8.687063835880458
8.309317616755912
7.963627628076236
7.657296457690933
7.389217386508292
7.14839446354638
6.914398216971307
6.659880745127005
6.35488101654613
5.972227366077055
5.492955755478541
4.910481936010212
4.232483999757519
3.480051759363878
2.684362567742975
1.881644322642177
1.107397919318775
0.3908756433936366
-0.2492623473533819
-0.8073675677703889
-1.290842310002487
-1.717728908155108
-2.112259073518798
-2.49928914586401
-2.898899046537499
-3.322384355857491
-3.77040321839045
-4.233410735990109
-4.694020533944146
-5.130666373321338
-5.521808072753744
-5.849873224616551
-6.104178868162045
-6.282259257796614
-6.389328821785591
-6.436042042354348
-6.435225080435891
-6.39862944491555
-6.334736038374403
-6.248195527310894
-6.140895993589243
-6.014200096220513
-5.871677028479832
-5.721588949504681
-5.578425002490139
-5.462924507919757
-5.400289031876966
-5.416628918929979
-5.534137307386469
-5.765984360987698
-6.11224258006126
-6.5580158371069
-7.074342393531578
-7.621696302230551
-8.15536813976905
-8.631740204657943
-9.014364174183486
-9.27875873438769
-9.415038553311309
-9.427866680554253
-9.33371319120976
-9.155966796822051
-8.919025902005309
-8.642864432403751
-8.339447694796057
-8.011752050666749
-7.655350372177259
-7.261934297898272
-6.82384867593945
-6.338586912382708
-5.812178351174375
-5.260564184334374
-4.708434921087004
-4.18552416489966
-3.720972252811337
-3.337011808547126
-3.043628328401885
-2.835696865182122
-2.693363754322552
-2.585497659366855
-2.475323385883927
-2.327030965672257
-2.112088985353602
-1.814057610843989
-1.430911498722001
-0.9742841089459681
-0.4656148107028614
0.07010562223640532
0.6115404991856692
1.147233404452278
1.679090787204653
2.222203890986505
2.801201976582407
3.444177873371225
4.175616081136162
5.009816349866516
5.946191451542641
6.967529659616154
8.041821210031848
9.127570543498578
10.18168366641327
11.16816975817197
12.06539809717947
12.86991494856464
13.59587079507191
14.27043684566429
14.92657534199465
15.59491596965127
16.29645428051118
17.03756708880322
17.80847624129421
18.58571987470601
19.33839172272178
20.03694082781568
20.66238681130749
21.21333435754709
21.70860855706568
22.18465927641958
22.68847693690217
23.26788047041578
23.96140034181726
24.78981619543987
25.7510282694094
26.81942480625521
27.95019557847494
29.0881051448432
30.17913065599566
31.18232304977042
32.07877511135946
32.87517470777552
33.60103147614539
34.30054493349124
35.0213670922638
35.80289457383109
36.66649365882224
37.60959408507225
38.60497577323999
39.60572375683863
40.55520262165959
41.40010619212718
42.10348527046303
42.65422039531263
43.07020455526146
43.39440483548895
43.68509632979066
44.00293579864842
44.39785552578571
44.89837648081347
45.50533899261978
46.19138088000643
46.90664322179259
47.59003254605876
48.18395654486008
48.64911944957359
48.97539939800829
49.18566421291943
49.33149782132326
49.48220971865398
49.71007282286631
50.07511274073656
50.61237393509755
51.3239722761107
52.17756928652487
53.11199263817507
54.04941866988128
54.91189714865305
55.63844723037771
56.19825528432103
56.59636005949286
56.87050393939578
57.08047384110662
57.29301939104101
57.56588981506718
57.93413089095841
58.40116394020337
58.93650928109957
59.48108238803889
59.95957537295055
60.29763173599311
60.43980486269316
60.36350344888302
60.08502220166695
59.65620623112436
59.15312798964217
58.66003546490836
58.25229946160959
57.9816433909088
57.86626572826155
57.88776442205128
57.99581527118155
58.12013644504962
58.18747295674429
58.13961771216439
57.94767657410367
57.61863267730261
57.19266257860917
56.73246204942976
56.30773572141907
55.97851544615996
55.78057042570537
55.71553396810587
55.7476981891196
55.80849184556274
55.80826716137472
55.65328796600496
55.26418241078665
54.59134740536688
53.62352414903228
52.38789588829582
50.94257238074992
49.36404500555653
47.73267851610716
46.11896696102558
44.5727655870777
43.11724047129579
41.74863507434848
40.44191637882984
39.16100128472097
37.87095363069786
36.54887613561502
35.19068482263395
33.81244467170853
32.44670874174403
31.13549284858397
29.92182748830365
28.84157630798444
27.91687822828129
27.15231296996237
26.53451826304523
26.03533255385305
25.61768248439391
25.24266865099447
24.87598448433314
24.49215171971264
24.0759358704015
23.62126607810879
23.12858123894878
22.60160797995093
22.04433618013817
21.45871202580812
20.84344202284746
20.1941521675828
19.50483249659066
18.77009129296748
17.98745480584574
17.1589443719021
16.291461763071
15.39597130750644
14.48586718712041
13.57509490956709
12.67652140982979
11.80082432270163
10.95597454100151
10.14729468201439
9.378006899254538
8.650058267794021
7.964892289177077
7.323837773726253
6.727940181318551
6.177286262195803
5.670064566873335
5.201703638387727
4.764425053498019
4.347441668278362
3.937854586542405
3.522132839380086
3.087948479512028
2.626064260426255
2.131913838156374
1.606527260501281
1.056587500140368
0.4936187527280339
-0.06749369248975494
-0.6103376686959854
-1.118822569142191
-1.578741845264764
-1.978839156091837
-2.311290662611542
-2.571639329552771
-2.758317230732495
-2.871967609410871
-2.914816884496331
-2.890308815248725
-2.803086636755924
-2.659252335358014
-2.466728957894963
-2.235533266951452
-1.97780063187715
-1.707456059898658
-1.439494137857037
-1.188920392203958
-0.9694912691566814
-0.7924428914667246
-0.665424672786395
-0.5918543827699317
-0.5708545372151387
-0.5978005146164228
-0.6653590267955446
-0.7647945452839159
-0.8872936286159395
-1.025074939058053
-1.172094235871709
-1.324228158854238
-1.478932312895525
-1.63448570411544
-1.789017209539013
-1.939554632808729
-2.081345792848981
-2.207654997364807
-2.310126957300804
-2.379668654419446
-2.407680173103008
-2.387393489404169
-2.315053399106685
-2.190692196684659
-2.018308919439442
-1.805368548747041
-1.561678879787051
-1.297848705313877
-1.023636603604617
-0.7465365065167214
-0.4709017412768384
-0.1977888779248103
0.07446034380527283
0.3490428919685704
0.6291973963583529
0.9167308121977523
1.210907238502484
1.507955459333081
1.801317663744487
2.082605036456763
2.343071740476334
2.575288470760586
2.774619767174755
2.940125195676408
3.07462970263611
3.18391044266343
3.275168312008815
3.355135602249417
3.428264138636721
3.495411485286053
3.553312466070464
3.594938497713708
3.61066156753908
3.589988641766179
3.523524669420766
3.404764523998457
3.231334945216096
3.00542954868421
2.733381318030855
2.424539825079012
2.089793214366752
1.740135533987422
1.385617173210867
1.034869991700768
0.6952121061076056
0.3731555468499279
0.07502970606920988
-0.1925684462159897
-0.4227122674922009
-0.6085836453019383
-0.7444043774804857
-0.8267165663075973
-0.8557355262194115
-0.8364242119244776
-0.7789701515297718
-0.6984727299082008
-0.6138120143118725
-0.5458328875591641
-0.5151211412619932
-0.5397326478578867
-0.6332382195098233
-0.8033867659618282
-1.051591043865872
-1.373300260064951
-1.759148221929311
-2.196598242561812
-2.671711454684954
-3.170685499458942
-3.680924473853016
-4.191544631672749
-4.693349940182857
-5.178415873436349
-5.639488953129932
-6.069433111035273
-6.460930424974011
-6.806570733495282
-7.0993441913219
-7.333412173562499
-7.504927913681164
-7.612657057857417
-7.658221813758017
-7.645917871929909
-7.582163809849511
-7.474705667940017
-7.331726335379424
-7.161019486895917
-6.969386780613478
-6.762395106499074
-6.544566716999941
-6.319960525513271
-6.092968087980154
-5.86905408197414
-5.655172234895942
-5.459689843320448
-5.291808530168233
-5.160609339047101
-5.073929802983848
-5.037284601381812
-5.052999499973979
-5.119695494269528
-5.232248106827876
-5.382302496583129
-5.559305072156403
-5.751849294872868
-5.949015205898605
-6.141383276962798
-6.32152663091343
-6.483961651493346
-6.62468441645981
-6.740498574807907
-6.828345333937556
-6.884801203119787
-6.905855707820721
-6.887038992345047
-6.823912296312424
-6.712836544183799
-6.551821977292493
-6.341202105785219
-6.083915580370153
-5.78530142328136
-5.452451435536122
-5.093266646136128
-4.715413041799309
-4.325360862068277
-3.927641855813654
-3.524418225455981
-3.115446128506169
-2.698496477689714
-2.270221581885441
-1.827338610479643
-1.367897783981153
-0.8923674652160186
-0.4043103518821969
0.08948154079131404
0.5794145526068107
1.054009395310468
1.501176136926134
1.909692572716157
2.270688572774347
2.578875617067837
2.833239825947242
3.037001247735919
3.196818496568612
3.321409159546344
3.419888902563483
3.500176081404728
3.567768012009234
3.625089785873559
3.67148967128312
3.703856107133809
3.717758729726045
3.708924055925397
3.674745887246116
3.615476983297232
3.534816494192063
3.439777124475604
3.339909014220003
3.246103681978227
3.169269585733883
3.119157703128265
3.103532776161217
3.127769354739334
3.19485527379844
3.305730959528738
3.459851365385528
3.655805029293749
3.891792677272798
4.16580294677579
4.475426864499195
4.817380551061155
5.186907744431895
5.577284171120469
5.979634811574228
6.383198095807264
6.776048794090565
7.146180614022804
7.482789160133649
7.777562122206447
8.025743708122203
8.226721783519288
8.383944555059664
8.504116606924592
8.595801021224874
8.66770350068259
8.726996370965706
8.778034581648967
8.821718164692305
8.855600437020097
8.874695236767892
8.8728311953734
8.844306321070562
8.785497887161442
8.696038489304277
8.57924515928836
8.441677028189654
8.291926215027804
8.13893877113649
7.990267086912897
7.850652534857568
7.721237393504555
7.599547398766172
7.480224520085385
7.356356315814884
7.221138252239861
7.069515799963662
6.899421310503709
6.712291030272668
6.51271564065539
6.307291367989654
6.102935579885497
5.905057467545515
5.715998462237796
5.534082917792459
5.35348235482233
5.164933979706091
4.957189428390688
4.718918791958258
4.440686647969794
4.116593620440978
3.745261770683775
3.3300089353777
2.878248628522193
2.400313459961123
1.907991510251836
1.413071330339383
0.9261305477454082
0.4557117328461545
0.007933821232570408
-0.4135016670916143
-0.8070262944791874
-1.172804800445081
-1.512373211246639
-1.828398252189422
-2.124542737711281
-2.405347729560921
-2.676026760661373
-2.942108230295739
-3.208930309601674
-3.48105489674755
-3.761706576346203
-4.052356814216312
-4.352560785976094
-4.660115283122638
-4.971548343927578
-5.282877972911877
-5.590493694069779
-5.89195030746465
-6.186464682399603
-6.474993094661886
-6.759901644981513
-7.044356945432614
-7.33161352735882
-7.624363541582714
-7.924273486962869
-8.231783848594633
-8.546197277102875
-8.866025929604223
-9.18950363652736
-9.515104522626624
-9.841883253905767
-10.16949883209832
-10.49789605889269
-10.82674189735131
-11.1547867569787
-11.47931562992736
-11.79579384978956
-12.0977532692346
-12.37694266705264
-12.62376014465359
-12.82795104823962
-12.97948302951888
-13.06943690377145
-13.09073015407382
-13.03854616619665
-12.91045326394854
-12.7063077736887
-12.42809656326844
-12.07985733451943
-11.66771654205364
-11.19996401514826
-10.68703862622815
-10.14136078575806
-9.577034566860375
-9.009462314499439
-8.454863742640189
-7.929640508084383
-7.449540275719094
-7.028652789963933
-6.678362211203242
-6.406433086029358
-6.2164059055236
-6.107430179044833
-6.074582879941357
-6.109632125330475
-6.202134957952208
-6.340707868332573
-6.514267060704763
-6.713007018858503
-6.9289057752534
-7.155646454666015
-7.388008907968486
-7.620940694367966
-7.848597137372906
-8.06363300447739
-8.25695653260913
-8.418045733963403
-8.535805160361937
-8.599836136564761
-8.601911631484684
-8.537380560770352
-8.406189265145635
-8.213245562100562
-7.96799474164952
-7.683289236078535
-7.37381644452848
-7.054426463439674
-6.738674072966099
-6.437797945512872
-6.160237714736642
-5.911668671784043
-5.695447554432191
-5.513313950469766
-5.366156628729378
-5.25463033934939
-5.179432007473853
-5.141145118049455
-5.139709795859608
-5.173700481426333
-5.239641519580055
-5.331568040619985
-5.440972214144054
-5.557183596394422
-5.668142128920134
-5.761459116787825
-5.825623806057902
-5.851180422489039
-5.83167389306308
-5.764176249737241
-5.649288667203252
-5.490646055063978
-5.294071201622707
-5.066585324630079
-4.815474297480372
-4.547551202161214
-4.268675687126641
-3.98353011018648
-3.695632552223914
-3.407561584186574
-3.121336990153642
-2.838843425926826
-2.562145378783506
-2.293568816648366
-2.035516211440075
-1.790083839079691
-1.558609981304876
-1.341291594547672
-1.136985689420317
-0.9432708641189225
-0.7567856204148079
-0.5737951499457781
-0.3908836410331754
-0.2056303016984868
-0.01710780458959832
0.1739403372977625
0.3653145377322605
0.5539279805527513
0.73659793880781
0.9108879418616249
1.07583419117309
1.232415031528454
1.383664664603862
1.534395632997369
1.690564162223202
1.858369998833719
2.043230077240613
2.248807937167808
2.476295183122325
2.724093187862945
2.987939160028449
3.26141749049594
3.536742380414067
3.805682843594561
4.060498560932829
4.294764392403289
4.503987429847878
4.685946083726564
4.840698159213987
4.970238755872129
5.077855756026129
5.167302906777374
5.241945442855765
5.304022924621306
5.354143819002338
5.391094680139095
5.412008485297511
5.412883649973572
5.389382196267909
5.337772965836359
5.255835058578604
5.14351896117373
5.003204929879949
4.839501405153233
4.658647916847008
4.46767259595085
4.273482120478384
4.082045213609357
3.897794587551385
3.723333083321121
3.559482124769166
3.405636217883848
3.260294235639984
3.121572864290535
2.987512768442535
2.856069014726722
2.724804845958392
2.590431366161732
2.448401462431889
2.292746017513141
2.116250917864585
1.910969883303552
1.669000374702561
1.383413759096845
1.049191862830294
0.6639837816170844
0.2285036213674324
-0.2535342147461358
-0.7759193327368239
-1.330730637030601
-1.909150257628659
-2.502051947166981
-3.100214079857637
-3.694172489633365
-4.273870666732261
-4.828322162520293
-5.345478458146906
-5.812445391668526
-6.216137912756845
-6.5443865536624
-6.787391391692502
-6.939280667894788
-6.999422754738446
-6.973122786457059
-6.871449885109597
-6.710166054637607
-6.507969100849496
-6.284409060811418
-6.057844432526417
-5.843714723997245
-5.653304366366697
-5.493111018738409
-5.364891129146853
-5.266383175904112
-5.192577834677312
-5.137252654135438
-5.094400475670145
-5.059222395255015
-5.028519455848903
-5.000522175955484
-4.974348245132465
-4.949320950650463
-4.924325797166044
-4.89730334349911
-4.864945072382492
-4.822672635319632
-4.7649694688561
-4.686049906219859
-4.580725160130271
-4.445239572420076
-4.27786580858225
-4.079155277962907
-3.851873684262013
-3.600741448454513
-3.332106356162355
-3.053609196219591
-2.773827395836354
-2.501874164835995
-2.246992350436203
-2.018228051970798
-1.824226828987109
-1.673086952013822
-1.572122736090807
-1.527412608302802
-1.543123470160525
-1.620737368924983
-1.758382949616481
-1.950467540735796
-2.187735309520197
-2.457785049194381
-2.746008414037175
-3.036862382592241
-3.315339529916983
-3.568426454818118
-3.786273065812029
-3.962797845429328
-4.095568748029971
-4.184994753255979
-4.233050003487352
-4.241853919017839
-4.212427695110306
-4.143869260597839
-4.033083750492835
-3.875111480585735
-3.664010551207261
-3.39415462505843
-3.061695616427059
-2.665854436277368
-2.209703489770458
-1.700230906671039
-1.147690590248879
-0.5644386297003021
0.03645332495066857
0.6425381084079447
1.243091947376056
1.829852512297187
2.397331342064289
2.942680604277422
3.465150407062092
3.965252971831017
4.443834233140449
4.901289118425693
5.337102090198281
5.749772383943711
6.137068166592016
6.496497545149449
6.825880598800831
7.123924277034417
7.390718487261964
7.628075694428771
7.839631651130599
8.030636254940866
8.207418286276008
8.376598460560968
8.544199528246752
8.714810271021783
8.890912232377874
9.072429416932065
9.256541543235025
9.437791307948558
9.608492855351004
9.759411596376614
9.880637956862657
9.962526346866614
9.996545722860922
9.975927850063208
9.896099048622292
9.754974372977097
9.553208502121645
9.294434459926935
8.985447176084826
8.636257695285213
8.259945411117037
7.872240644418625
7.490783970982275
7.134050851957397
6.819991399158397
6.564496587273158
6.379865994475945
6.273517007228969
6.247199972019601
6.296915253061044
6.413572248183542
6.58426278693421
6.793916115988748
7.027071698143502
7.26952059823124
7.509606795701345
7.739040187506988
7.953142892373558
8.15052412149003
8.332267289756619
8.50081679135995
8.658828587685253
8.808240298031047
8.949718130235034
9.082514168256715
9.204682294140705
9.313558088125118
9.406380466858156
9.480918075542531
9.53597408284796
9.57167289426346
9.589471492313868
9.591897877580182
9.58210416948589
9.563392784830093
9.53887406481373
9.511336586587213
9.483314856949338
9.45728015512457
9.435862222759129
9.422008712255211
9.41900244181177
9.430290309815058
9.459120222313944
9.508018801893622
9.578180583699522
9.668886973439648
9.777104622400362
9.89738831360187
10.02213491543091
10.14215303932045
10.24746912357224
10.32827827156389
10.37594065014096
10.38391177065401
10.34848298149605
10.2692058154417
10.14889693607949
9.993190622086665
9.809718960066617
9.607105012735564
9.393987508990751
9.178243812810448
8.96649031416616
8.76387275370456
8.574122606949961
8.39981836072597
8.242738290927603
8.104157882642872
7.984969688578483
7.885581281736807
7.805643752096642
7.743749296072547
7.697279691946059
7.66255202099048
7.635296952539593
7.611380295793
7.587610812670225
7.562478782132632
7.536691966686909
7.51337951074536
7.497844398045517
7.496807113870515
7.517195030908515
7.564653829679694
7.642054521494904
7.748310010834328
7.877764581472048
8.020283421022189
8.162009032614847
8.286634090845565
8.376986118653974
8.41670900157333
8.391836779817364
8.292075882102985
8.11164328960442
7.849559995373076
7.509385984355045
7.098499527054219
6.62712223879876
6.107310117300516
5.552059556225815
4.974574407977039
4.387671737263853
3.803290556300047
3.232089197988411
2.683137624685309
2.16370446055764
1.679111479046752
1.232618241756895
0.8253376570200421
0.4562563450414364
0.1224818838188778
-0.1801986839680355
-0.4564867425032877
-0.7106387145092936
-0.9456687413570881
-1.162883904734341
-1.3618320557962
-1.540632377537386
-1.696618882725178
-1.827235148918062
-1.931101701323102
-2.009102690813291
-2.065246277500687
-2.107022526437583
-2.145071143122523
-2.192160565146367
-2.261679856217377
-2.365962768238512
-2.514760328601069
-2.714080159988264
-2.96549259093238
-3.26593467428582
-3.608019950496536
-3.980821597346443
-4.371002191003782
-4.764050515696988
-5.145336249507093
-5.500766933378824
-5.817009740756882
-6.081431787676154
-6.28201714488825
-6.407489501816255
-6.447743366170976
-6.394561123656211
-6.242533359127419
-5.990076773859513
-5.640398472129338
-5.202184964188668
-4.689750632669573
-4.122421771026355
-3.523085105855402
-2.916056009447677
-2.324625525819612
-1.768735754611826
-1.263180340450863
-0.8165722901946706
-0.4311498194746414
-0.1033708043163725
0.174820657243396
0.4142319392908681
0.6264211311751597
0.8217916102632583
1.008125750182594
1.189801070489886
1.367747120487083
1.540016673522879
1.702734888872073
1.851176195515457
1.980777234381364
2.087975002954632
2.170813900191092
2.229287382086692
2.265404197156607
2.283021958942548
2.28755427796461
2.285681820610444
2.285147739951146
2.294617943600973
2.323504441905582
2.381635446798826
2.478709588990534
2.623558112990179
2.823307557765869
3.082553884931603
3.402643472185758
3.781148457590136
4.211640079167143
4.683880019652856
5.184522559210256
5.698323688811132
6.209715840881292
6.704499115807835
7.171372472168701
7.603076354854283
7.997003206717073
8.35521754060768
8.683895880847187
8.992253072354618
9.29107710417635
9.591054049555117
9.901115310189958
10.22704964003217
10.57056714001393
10.92890165159947
11.29494657949318
11.6578657786368
12.00408964351405
12.31858278378059
12.58626243264156
12.79345409229693
12.92927031763678
12.98678477191376
12.96387511788522
12.86364855298499
12.69442464798794
12.46929233065133
12.20527239117976
11.92213110710073
11.64092213330027
11.38236851885202
11.16521801310638
11.00471303189526
10.91131113878012
10.88976424580822
10.93862029402113
11.05017536090857
11.2108932045094
11.40230498713676
11.60237221639943
11.78723675894082
11.93322101026118
12.01890471499427
12.02709525113126
11.94651434271165
11.77303919487155
11.51036477641019
11.17000423612979
10.77061529820169
10.33672493880598
9.897012264917224
9.482376109823806
9.124028097643968
8.851806873515736
8.692833317721478
8.670557306533283
8.804199685447983
9.108555960226898
9.594083586519714
10.26714975844352
11.13029665162365
12.18240322446864
13.41869134853053
14.83063139546065
16.40590785457629
18.12864163816304
19.97999951955555
21.93919435717464
23.98475817344532
26.09587654842101
28.25351045924688
30.44102953501497
32.64414209803591
34.84997188614908
37.04518647423836
39.2132537658776
41.33130382944094
43.36756490287643
45.28055290981275
47.02086715251525
48.53572650146203
49.77562639754768
50.70188329900586
51.29338945914199
51.55076353768867
51.49634926793494
51.16904227511889
50.61366562140869
49.86589347198957
48.93567398726447
47.79390972347272
46.36738591672174
44.54494361844107
42.19463105431298
39.18866818784327
35.43128082460484
30.88353717095438
25.57907846692988
19.62536964528804
13.18698583645332
6.45055903040144
-0.4243716625782817
-7.358666280883201
-14.39683972875641
-21.72662956707036
-29.66751851795627
-38.62967195116151
-49.05167562388831
-61.32870956891701
-75.74358864847841
-92.41274092527507
-111.2573795245911
-132.0061692615308
-154.2297378045283
-177.4001016719352
-200.9609066403185
-224.3903758643031
-247.2412324196459
-269.1505220902671
-289.8228092925746
-308.9973414026824
-326.4114930886541
-341.7711665364772
-354.7366309525351
-364.929818979032
-371.9648609626637
-375.4974338518538
-375.2823169361641
-371.2249106433234
-363.41309126213
-352.1209183766671
-337.7836916365741
-320.9514056674237
-302.2317376644934
-282.2334500472132
-261.5182613853599
-240.5663805055847
-219.758766035071
-199.3766867295206
-179.6158061081156
-160.6089602067796
-142.4505299049472
-125.2162949401008
-108.9752804488209
-93.79320522325067
-79.72957723975044
-66.831606172367
-55.12790895280422
-44.62399095541614
-35.30038740894165
-27.11355552366004
-19.99909302471179
-13.87649430275916
-8.654487562861355
-4.236126586812293
-0.5231776360675069
2.580269179906444
5.164820713453913
7.31329131978668
9.09866625042179
10.58257615338545
11.81441975335523
12.83136153557098
13.65946898911808
14.3161397297022
14.81369391057512
15.16365386894998
15.3809107318928
15.48681722208849
15.51037655150534
15.4871442371791
15.45606053213894
15.45491915898095
15.515399762172
15.65860527899339
15.89196690226562
16.20821309365103
16.58678688080624
16.99763804794285
17.40678354564478
17.7825363092145
18.10102549843733
18.34975186312203
18.52847037384668
18.64744634866576
18.72375146307582
18.77657308599836
18.82257252055662
18.87225934543556
18.92814931366317
18.98510821958809
19.03279540704351
19.0595972603476
19.05699022794405
19.02305392161943
18.96403675849342
18.89347380243687
18.82912277339149
18.7885603353868
18.78449560867901
18.82082094293504
18.89028650149737
18.97445156380814
19.04616393425746
19.07427999183274
19.02977485728886
18.89193604216014
18.6531491476169
18.32103404836284
17.91737599954473
17.47415289863489
17.02761054480201
16.61160122565705
16.25138893271484
15.95900772126481
15.731049270655
15.54937562233154
15.38470497442758
15.20239359201092
14.96917486470082
14.65931561598592
14.25880298601889
13.76678615321896
13.19429167605167
12.56084659697011
11.88992690207342
11.2042092825953
10.52157395525385
9.8526714522434
9.200561912138708
8.562475669104723
7.933205373329681
7.309141008844836
6.691697267218203
6.089053533131458
5.515712846940859
4.990089625243594
4.530818942994019
4.152655863980859
3.86283941987791
3.658731542370997
3.527366597409967
3.447218427134966
3.392040128296215
3.336112807766761
3.259753760621197
3.153694761384724
3.021162814271425
2.877152879900914
2.745151820510916
2.652105713722575
2.622641373660242
2.673605979522293
2.809965055025017
3.0229315157284
3.290827010788854
3.582643448739501
3.863658283229463
4.101883173570899
4.27381864199775
4.368171162456602
4.386837402192357
4.343240677562151
4.258653344319204
4.157368034289935
4.061649791424852
3.987427419427709
3.941603724371284
3.921584933358631
3.917154397562434
3.914221464522756
3.899401167350221
3.86406619750154
3.806687958906942
3.732913778621847
3.653570743591124
3.581281142084921
3.526539217259572
3.494101614452648
3.480517240274338
3.473515577572271
3.453680669407574
3.398347650583422
3.287042507574079
3.107198500615207
2.858594650788379
2.555220531505519
2.224029471567254
1.900914362103758
1.624831746793022
1.43123043284841
1.345976310828207
1.380907699452844
1.53194424064644
1.780249233058763
2.096348398288092
2.446410823309655
2.799237313196181
3.132165589012188
3.434380261696693
3.70696730999922
3.960036843707389
4.207890618084433
4.46344185616671
4.733112296385106
5.013362394540555
5.289778271753247
5.539168420185923
5.734462822727917
5.851454752575403
5.875740769175086
5.807907693044231
5.66539136599504
5.48043303863018
5.294689280399207
5.151788529969359
5.089361077317414
5.132028177480282
5.286685086694866
5.541107105868146
5.866383174553552
6.222967346484072
6.569299759871476
6.871140536228012
7.109338000392601
7.284085261361864
7.414774815402209
7.535811420155668
7.689607196306103
7.918303209792299
8.255765940347366
8.721303574021086
9.316326566273263
10.02474422060914
10.81719714371316
11.65829819590114
12.51508457441974
13.36431843679659
14.19656216562895
15.01607614250106
15.83695114021851
16.67682780990217
17.54986757755321
18.46056230515271
19.39976276061352
20.34399412023192
21.25861102904365
22.10456534117662
22.84755580008487
23.46733595958985
23.96447074302834
24.36233088292943
24.7035483346482
25.04183076591299
25.43116113637979
25.91473824215764
26.51583350907616
27.23236746897895
28.03648538944832
28.87963641038028
29.70260754105493
30.44872217567559
31.07726176145175
31.5736571725427
31.95365136762022
32.26038966091503
32.55543305197502
32.90607501776244
33.3717629178816
33.99222851616098
34.77952323883242
35.71559184091119
36.75616600828492
37.84056144110448
38.90551870399073
39.89986339022356
40.79609939357059
41.59570496220856
42.32683271668586
43.0354190681182
43.77229741933547
44.57938456773191
45.4777621110597
46.46001699880588
47.48862814555633
48.50128331408128
49.42267029280432
50.1806367094627
50.72305376334484
51.03096049057132
51.12429370281103
51.05868906735014
50.91447095409402
50.78079323581871
50.73845682224852
50.84463592409371
51.12221679341529
51.55584541490126
52.0958543670233
52.66980912443417
53.19957466776816
53.61999274326555
53.89429230314254
54.02202958853556
54.03766294196674
54.00072366410802
53.98058503652862
54.03950131829669
54.21732282919832
54.52075529015127
54.9194064104419
55.34991167809363
55.72794821166433
55.96601094430561
55.99290229614172
55.76984796604395
55.29884494188789
54.62125436652606
53.80761678841478
52.94176524230873
52.10298372910137
51.34968639374147
50.70757045821083
50.16458888014338
49.67412863777255
49.16627421756028
48.56509749935335
47.80800885091968
46.86216671412102
45.73358259035843
44.46684874651103
43.13624449780569
41.83098761387944
40.63807185501611
39.62593527519245
38.83179155566
38.25497378319005
37.85782207600253
37.57430268084693
37.32477586362607
37.03355248943203
36.64484758958164
36.13317482592067
35.50610988107078
34.79972527425731
34.06870330996996
33.3737236746444
32.76860584276222
32.2894489208541
31.9477698323282
31.7291081187235
31.59753194661719
31.50504716448988
31.40347267366147
31.25552198712052
31.04215855266284
30.76470682436496
30.44195003630255
30.10366573158653
29.78241935819772
29.5052762724058
29.28688631729075
29.12525331736334
29.00116495962102
28.88152987145328
28.72586404570925
28.49423915404326
28.15458142693037
27.68756578215072
27.08833475976374
26.36535220491232
25.53735683500267
24.62945523061508
23.66913284454215
22.68273729240535
21.69292839140435
20.71750558527025
19.76971806602294
18.85968730127511
17.99617291316057
17.18783867961492
16.44349343856361
15.77130562578609
15.17742127675967
14.66457119672254
14.23114189598474
13.87094364921329
13.57370678479198
13.32623979836362
13.11410209491534
12.92348888542771
12.74285363302521
12.56376185906522
12.38067740309192
12.18976480863573
11.98715428900322
11.76728170813289
11.52184674089155
11.23970314091367
10.90771953842528
10.51243500511184
10.04221768107257
9.48955815382176
8.853042887902388
8.138514975228818
7.359043004121923
6.533604400600892
5.6847443123313
4.835736705145542
4.007849631429962
3.218216468885258
2.478622685703312
1.795307869352466
1.169697602542723
0.5998336468800041
0.08215890772702886
-0.3867548362484005
-0.8089302436352891
-1.184414102708344
-1.511442117483779
-1.787146052269999
-2.008489560354199
-2.173131559235485
-2.28001859822686
-2.329633421613174
-2.323934616914674
-2.266090552161176
-2.160131614271774
-2.010636332496302
-1.822554147127809
-1.601244297989122
-1.352750940332158
-1.084239218850545
-0.8044259684750291
-0.5238013350918065
-0.2544711720900367
-0.00953538481866005
0.1979691560734958
0.3564134383519996
0.456980404281744
0.4948942333000899
0.4702873470392458
0.3885647976807651
0.2601670190096461
0.09970111651783609
-0.07548252299073716
-0.2470816929657394
-0.3977437199779925
-0.5128002662661845
-0.5815865759269182
-0.5981622640845448
-0.5613497007769428
-0.474118194478868
-0.3424457091581833
-0.1738790078403764
0.02391933746281506
0.2443299833711242
0.4823891304538378
0.7347221419847975
0.9988251034410726
1.27188246468095
1.549432301196799
1.824237735922987
2.085681956066482
2.319896474423857
2.510690642655267
2.641197633931053
2.696003170053857
2.663401590220302
2.537363207080447
2.318821353871788
2.015997302891281
1.643660164116933
1.221436434000369
0.7714837368591708
0.3159585480368213
-0.1252924142599949
-0.5364784315382685
-0.9068456990743355
-1.230837372856869
-1.507516384854607
-1.739446981811505
-1.93130048046919
-2.088471603580836
-2.215964595684577
-2.317732059049545
-2.396529828590828
-2.454217374903231
-2.4923324510781
-2.512736149664179
-2.518155727337805
-2.512508942603266
-2.500941657756521
-2.489550223606917
-2.484810835995136
-2.492805791720246
-2.518403242208778
-2.564579242715162
-2.632040093762838
-2.71921152491792
-2.822549655942991
-2.937049540331226
-3.056809824234768
-3.175545514759096
-3.286987300703913
-3.385138427516485
-3.464384014789736
-3.519480452136468
-3.545496084220314
-3.537811583398716
-3.492292591828211
-3.405698099717724
-3.276294978112025
-3.104554876597936
-2.893758941412737
-2.650342145288681
-2.383854006098976
-2.106471867520876
-1.832071148391829
-1.574940769843108
-1.348324269266196
-1.16304061191263
-1.026461188102842
-0.9420650130421506
-0.9096574968005356
-0.9261590164360775
-0.9867241880841509
-1.085898647588582
-1.218554854887498
-1.380426996310716
-1.568148671033215
-1.778782122831221
-2.008928798183693
-2.253623166106295
-2.505302196853571
-2.753170145995966
-2.983209623660384
-3.178923860479995
-3.322688327146678
-3.397436236369602
-3.388356592194611
-3.284322092676339
-3.078837025758326
-2.770384662022833
-2.362163939217246
-1.861324087545885
-1.277905651793903
-0.6237573980957952
0.08829470603886098
0.8448229460204253
1.631674961152613
2.433505770535853
3.233253881067836
4.011866659283532
4.748491338634464
5.421214193246065
6.008311775421014
6.489898034328558
6.849786003280111
7.077307132236713
7.168765544916502
7.12820172008356
6.967242848904321
6.704021416045408
6.361378779952728
5.964731094002365
5.539996344988243
5.1118775369758
4.702639300803138
4.331389528292647
4.01382382749467
3.762368955668847
3.5866104749019
3.493806689346989
3.489235107157468
3.576157575701567
3.755342485424978
4.024281837686994
4.376383716748183
4.800446987472572
5.280649164964823
5.797159622806
6.327385793492915
6.847776406080693
7.336002840132511
7.773204987128556
8.145878714852415
8.446976132373036
8.67592580270158
8.837535407774064
8.940031903111915
8.992711815739668
9.003735305489723
8.978501397700914
8.918869292469598
8.823331536359387
8.688108240108896
8.508965643342412
8.283368520277989
8.012442623068253
7.702237700669195
7.36395600733869
7.013087884587541
6.66767910050826
6.346147351892443
6.065113691257456
5.837633390884293
5.672069942495209
5.571725479881747
5.535232810483358
5.557595035625847
5.631623118615027
5.74942120969262
5.903563738100289
6.087713268098168
6.296607133962192
6.525527560505533
6.769503780819777
7.022538900280464
7.277099884281662
7.523994853385147
7.752664622074315
7.951869295461611
8.110708603521886
8.219829558139933
8.272576659436162
8.265800915922116
8.200106177311108
8.07945751028153
7.910250652325839
7.700084126419743
7.456538309478364
7.186222271129724
6.894229739965731
6.584035154540628
6.257810275129113
5.917111403296205
5.563819961712244
5.201126864873218
4.834293774585729
4.470944676945952
4.120741458658815
3.794450824337636
3.502572214116231
3.253811199920375
3.053710452927038
2.903702989726397
2.800775063503993
2.737835123544011
2.704763310609517
2.689967887426672
2.682145999475835
2.671883140026709
2.652749704758915
2.621662932373868
2.57845954364421
2.524821912633971
2.462846233837511
2.393588535538222
2.315901930500285
2.225836124783967
2.116792845699178
1.980474623280361
1.808457145867737
1.594047626004788
1.33402309638293
1.029870675060683
0.6882545855143959
0.3205994765512344
-0.0581223108079834
-0.4311467964406044
-0.7818886717079988
-1.095799903603079
-1.361836642685501
-1.573338842698053
-1.728252518447864
-1.828757286427088
-1.880455452200642
-1.891319448646017
-1.87059962686122
-1.8278801533273
-1.772429676256802
-1.712915456913393
-1.657458577521931
-1.613943786762519
-1.590462744177935
-1.595739694512436
-1.639375072925569
-1.731781238551376
-1.883768604912117
-2.105819630889686
-2.407133355612314
-2.794550619802564
-3.271501406654346
-3.837139209486165
-4.485813565233171
-5.206981593731586
-5.985604776894403
-6.803029596843056
-7.638291502147476
-8.469712538568443
-9.27661262415607
-10.04093288714044
-10.74856127297541
-11.39015629613485
-11.9613159935636
-12.46206124830811
-12.89576964140535
-13.26783501673394
-13.5843768409939
-13.85127157438427
-14.07365590279415
-14.25591166559187
-14.40204124699057
-14.51629787305097
-14.60391254828463
-14.6717241509134
-14.72848887174917
-14.78467241885343
-14.85164709953609
-14.94040057302461
-15.06003592572668
-15.21642696579914
-15.41135659043573
-15.64232809148104
-15.90306160559062
-16.18454885210302
-16.47647006004318
-16.76874204693014
-17.05292848728188
-17.32322145208222
-17.57675229919613
-17.81314016577725
-18.03340230496298
-18.23854527113393
-18.42824735937412
-18.59999559819609
-18.74888041692855
-18.86806262135113
-18.94979900107538
-18.98685226343367
-18.97405503172863
-18.90971563608031
-18.7964971068729
-18.64145239619855
-18.45509244616816
-18.24964408079224
-18.0369021908681
-17.82619089775318
-17.62289399875236
-17.42784273244676
-17.23764077764362
-17.04583038772167
-16.84467282891888
-16.62720472320274
-16.38913653741079
-16.13012830291534
-15.85407097422916
-15.56823320475618
-15.28143889383717
-15.00170379329458
-14.73388276543307
-14.47784356185016
-14.22753652653277
-13.97113943540618
-13.6922700209497
-13.37209037848839
-12.99197578522574
-12.53629845671145
-11.99482351846052
-11.36427359606346
-10.64880130150006
-9.859367889721092
-9.012265861496747
-8.127157112190186
-7.225004873576572
-6.326198244012414
-5.44906261424833
-4.608859213680617
-3.817310661690516
-3.082631704965608
-2.409982043297899
-1.802197311064255
-1.260617274743252
-0.785839090292363
-0.3782779438330756
-0.03848848824296955
0.2327458698989809
0.4345230998644192
0.5660914073866994
0.6272332360379776
0.6187131630192205
0.5427225414757394
0.4032422256487378
0.2062586300441724
-0.04019142568290714
-0.3261343529939864
-0.6399127948973004
-0.9685755909677853
-1.298410308534343
-1.615607732952002
-1.907017817831291
-2.160929767135026
-2.367798933399247
-2.520855187449202
-2.616547053756786
-2.654781143528065
-2.638904968957541
-2.575377899599725
-2.473112113403916
-2.342548537735898
-2.194619231336357
-2.039777507928052
-1.887236167764264
-1.744483496177549
-1.61708834459146
-1.508768229402232
-1.421667761558229
-1.356769675924589
-1.314334296055594
-1.294242780901538
-1.296126681457731
-1.319226902493175
-1.362036202118032
-1.421885097137739
-1.494659874211767
-1.574780430045292
-1.655471141852146
-1.729287165555292
-1.788822226876075
-1.82750333420418
-1.840357266485297
-1.824613646590198
-1.780004464044708
-1.708652916021284
-1.614535201850056
-1.502634422220216
-1.378017463007127
-1.245076115771875
-1.10707988896221
-0.966060697602594
-0.8229525819365001
-0.6778646351944049
-0.5303720614405815
-0.3797499521151578
-0.2251135071624516
-0.06545018071622008
0.1004492258284824
0.2741070260985071
0.4574086921250227
0.652453969616973
0.8611433057770771
1.084557050221376
1.322292854294582
1.571971841192607
1.829093224241103
2.087321322773064
2.339171802726237
2.576977392443083
2.793973882663678
2.985335601319043
3.148984406585488
3.286001762029059
3.400520826856257
3.499082284036725
3.589567031989354
3.679911545115667
3.77684381458182
3.884855761325896
4.005561890316448
4.137505037522553
4.276390957525458
4.415682714798287
4.547455648325174
4.663382960925177
4.755684714654136
4.817860641691495
4.845079965688959
4.834206804845461
4.783534471630241
4.692343688710188
4.560398480251123
4.387475564653285
4.173001966188672
3.915857797726107
3.614391606933837
3.266686945190535
2.871087662131521
2.426922685683333
1.935297103048122
1.399785873447059
0.8268928636752289
0.2261853623930097
-0.389948163253343
-1.006935268049213
-1.609022238213921
-2.180551487397322
-2.707359094144339
-3.178082962761477
-3.585143136796006
-3.925184456198781
-4.198882443629253
-4.410181205026896
-4.565180521940687
-4.670948983753888
-4.734502545577758
-4.762097187657182
-4.758894582423098
-4.728999879900739
-4.675831360239224
-4.602734296481625
-4.513684941254722
-4.413869643725334
-4.309917444968283
-4.209648695749321
-4.121358363345075
-4.052805292733246
-4.010154149415491
-3.99709640777303
-4.014295272009133
-4.059212780387366
-4.126324757185679
-4.207704798014694
-4.293924546273531
-4.375152242839741
-4.442256060615677
-4.48768324186598
-4.505931720601885
-4.493552630365294
-4.448764905911072
-4.370860262734747
-4.259592019553563
-4.114689982103041
-3.935581735961486
-3.721370592920053
-3.471106281183583
-3.18434133612377
-2.861879813159168
-2.506527029242843
-2.123595259143479
-1.720959579281615
-1.308592702821254
-0.8976743995967756
-0.4994834414083863
-0.1243005903452218
0.2194875251298872
0.5259422067427223
0.791689973765714
1.015574495034939
1.197904242641921
1.339455109844834
1.440470729807178
1.49994313929614
1.515416814020886
1.483426751815
1.400499399370062
1.264494669540492
1.075999125331969
0.8394810563748392
0.5639543098947637
0.2629670091730903
-0.04615684841680196
-0.3437585027334211
-0.6097769547306762
-0.825885184202571
-0.9774906923794598
-1.055278242273769
-1.056074162846012
-0.9829689538582363
-0.8447778299057296
-0.6549878355212898
-0.4303412209650552
-0.1891977181048376
0.05015630595349901
0.271049480576473
0.4596239620352445
0.6055712215323175
0.702402458295281
0.7473578765728021
0.7411044875274267
0.6873421582069407
0.592366374082526
0.4645792277789733
0.313933638462822
0.1513262931936014
-0.01202697062825692
-0.1652183314294826
-0.298287934872873
-0.4028781651730111
-0.4728588113163186
-0.5048275497589059
-0.498365935758747
-0.4559596193965076
-0.3825692300470228
-0.2849298801476233
-0.1707183781151764
-0.04773149911161839
0.07682363339790846
0.1968701038249714
0.3077888254750288
0.4064898646962398
0.4912118483178554
0.5610982561560954
0.6156730251588414
0.6543779711225548
0.6763081506618159
0.680195362732405
0.6645954978190443
0.6281845086148343
0.5700715043410148
0.490068285456619
0.388878086930137
0.2681720410592124
0.1305289741539788
-0.02075564145869942
-0.1819336664294626
-0.3490333172696756
-0.5179323352166753
-0.6842038461060913
-0.842763049826134
-0.9874408962976902
-1.110653385172919
-1.203304605377953
-1.254991859573632
-1.254529748567826
-1.190793596391291
-1.053858028236556
-0.8363363852457603
-0.53472977090441
-0.1505230617432409
0.3092325547820889
0.8320138669917144
1.400598534371974
1.994367100797411
2.590906371549534
3.167686712936111
3.703626307565479
4.180399001717259
4.583382310212024
4.902191244823746
5.130806370425841
5.267369512432412
5.313769479563595
5.275149426337241
5.159420838048709
4.976790366667548
4.739253652269414
4.460016411608476
4.152841242326213
3.831349676124245
3.508323304349285
3.195055354099291
2.900813324142936
2.632486461267835
2.394503837435036
2.189099752233948
2.016941777164093
1.878016474647146
1.772545947099824
1.701670675002606
1.667706735216506
1.673917897980733
1.723870630127956
1.820521992175009
1.965213128647894
2.156725156147382
2.390539264388205
2.658445225717727
2.948636346635945
3.246367379070609
3.535119292516508
3.798069543670719
4.01959956625087
4.186605084322944
4.289452084523443
4.3224955744272
4.284149736050232
4.176564628341191
4.005008816776728
3.777081583471138
3.501903130116019
3.189452597810919
2.850199327616127
2.495068687054496
2.135636023341716
1.784341065684171
1.454511760376707
1.160051900930331
0.9147322409321776
0.7311134081713992
0.6192166189519978
0.5851317203513792
0.629802320805068
0.748253276030851
0.9295123269072987
1.157391888765408
1.412122489293854
1.672614092871348
1.918963036901202
2.134783745702732
2.309007078111882
2.436897918152604
2.520172453408547
2.566227160530101
2.586611717203074
2.594977464462136
2.604812772384576
2.627329063642319
2.669853697300777
2.73498374212128
2.820572851484411
2.92043765256898
3.025553692573351
3.125477712011143
3.209755415779627
3.269126385897099
3.296402739201242
3.28696137411018
3.238849587241421
3.152569520957632
3.0306750356765
2.877353356165806
2.698132743609312
2.499756418854543
2.290150735538727
2.078358530058361
1.874321373182017
1.688445817388368
1.530945437618457
1.410999379830824
1.335810194388406
1.309682253487258
1.333275745386461
1.403209591408237
1.512167101918785
1.649578314325276
1.802819681753475
1.958734000082302
2.105192788292181
2.232429843969116
2.333948321949732
2.406895535303909
2.451875963931845
2.472237686455667
2.472940548687414
2.459198281296747
2.435156026856998
2.402876692497471
2.361833995353293
2.308966288408224
2.239199790820423
2.146262392291119
2.023590203524506
1.865154302385119
1.666082064898409
1.423007813345305
1.134158846253486
0.7992583721067155
0.4193899207103289
-0.00300898943990846
-0.4639032409345549
-0.9571689852604617
-1.474008957333127
-2.00252729736274
-2.527713192703654
-3.031989629502029
-3.496352303938374
-3.90200067448607
-4.232266001463161
-4.474563455798769
-4.622037777230341
-4.67456324096721
-4.638833428164798
-4.527440753199865
-4.357064664420924
-4.146090728134225
-3.912096751913196
-3.669631634145906
-3.428593831573556
-3.193347720959375
