-0.5087850992482884
2.721543406644465
5.808245300148759
8.657077858460168
11.18760839426947
13.33895846024328
15.07420637284237
16.38271182627372
17.27978334381833
17.80356662102427
18.00959483905822
17.96387392184339
17.73557211164439
17.39035288227819
16.98519033847843
16.56521408304312
16.1628050077731
15.79882091033585
15.48546661338117
15.22997102098421
15.03802398554361
14.91602681513371
14.87163861347697
14.91266284669394
15.04478793835856
15.268958461162
15.57918930537073
15.96148462070132
16.3942689651747
16.85044334743843
17.30085746281973
17.71864502281161
18.08355114273686
18.38521884359043
18.62454817892215
18.81271161020306
18.96802348556776
19.11139218613848
19.2613886366671
19.42999606329369
19.6199027770131
19.82386485434406
20.02628268184267
20.20673140867155
20.34477193183523
20.42500079647361
20.44110833042782
20.39786203961552
20.31044058676517
20.20123975473647
20.09491361249562
20.01281765393052
19.96809926822515
19.96247104253924
19.98532787297421
20.01543151400146
20.02492117173678
19.98493172622744
19.8716718827955
19.67158001741918
19.38431246599485
19.02285777343583
18.61081976214796
18.17760185263904
17.75265764041853
17.36006851300828
17.01451433244443
16.71934431445988
16.4670386067619
16.24191805776839
16.02451747088141
15.79662291416434
15.54571979681575
15.2676950300405
14.96713789695897
14.65529987171635
14.34641012819879
14.05340105891054
13.78413041160326
13.53896802572582
13.31026859467966
13.08386707380551
12.8423437363204
12.56942440452241
12.25454959556348
11.89647935994276
11.50495167284563
11.09991185010782
10.70849238400808
10.36047884120035
10.0832846409796
9.897460507167404
9.813564334697283
9.83091652653115
9.9384241240495
10.11729042291786
10.34505050692247
10.60003715665776
10.86520051014026
11.13032559898943
11.39214769538182
11.65248715327887
11.91506405595351
12.18194678228249
12.45060034573489
12.71228472787123
12.95221571020659
13.15153769875334
13.29081349164455
13.35440790202054
13.33484663298463
13.23607559391955
13.07468662370295
12.87865163452182
12.68375485443188
12.52849272813287
12.44855278141968
12.47202128920497
12.61624567471656
12.88690414976269
13.27941323935988
13.78237620301481
14.38235179278851
15.06884021660776
15.83816750927423
16.6950826508485
17.65143038493232
18.72206766364703
19.91896740778425
21.24494941761634
22.6885766494706
24.22150333966328
25.79909850673022
27.36459683941215
28.85638593476547
30.21735414440655
31.4045918016985
32.39738267988837
33.20161499418935
33.8495482935479
34.39502496578998
34.90528906914906
35.45122599710621
36.09792052969121
36.89706533097119
37.88221313753753
39.06733587968508
40.44862017104234
42.00884237192169
43.72312323353758
45.56460995106645
47.50888164139842
49.53653910474094
51.63416462285668
53.79431387763109
56.01530535487136
58.30125161078981
60.66214183323833
63.1132076371383
65.6725723646957
68.35621977779209
71.16954572925896
74.09548648603968
77.08072656012978
80.0232832164172
82.76564727101656
85.09681533630197
86.76442792303058
87.49596489627254
87.02611598419843
85.12601194575078
81.62917335972053
76.44915046750143
69.58480000268902
61.11092524179052
51.15512957590488
39.8662246257931
27.38349517638365
13.81669197674361
-0.7571591891576432
-16.27996780753059
-32.6865226076072
-49.87342228696917
-67.67103306287072
-85.82609527435676
-104.000913002498
-121.7921406586713
-138.7681462138659
-154.5188565980424
-168.707036394571
-181.1078420635776
-191.6263815534773
-200.2899578549646
-207.2191066465371
-212.5861526061976
-216.5709885597353
-219.322460596807
-220.9317383863539
-221.4219313559472
-220.7556050313822
-218.8583457941826
-215.6525038954062
-211.0921986289749
-205.1903844317302
-198.0317474042951
-189.7699930754476
-180.6124651764195
-170.7974382951375
-160.5695488397537
-150.1575177564553
-139.75688317408
-129.5195407524859
-119.5510572756791
-109.9153740589405
-100.6448281218311
-91.75226143807913
-83.24206777325197
-75.11820075932981
-67.3886278089814
-60.06675862484016
-53.17079873673269
-46.72188226258504
-40.74149140911138
-35.24844252684401
-30.25577280470651
-25.76797554966063
-21.77893753778746
-18.27069244241974
-15.21300427644168
-12.56394363385533
-10.27178502388523
-8.278426401348781
-6.52409575949793
-4.952647376599635
-3.516518000462991
-2.180448622183087
-0.9233079034892843
0.2622899391610525
1.372482049695007
2.396330684545725
3.320960892675731
4.136715262105491
4.841232036892732
5.441453512320507
5.953038793184462
6.397386519680768
6.797154806978758
7.171503927043682
7.532229546070831
7.881642201030718
8.212626004550392
8.510854798541924
8.758706317583318
8.940028942133438
9.044631611563329
9.071300169112975
9.028420740822703
8.931917645965877
8.801001597828403
8.652864150526984
8.497707622396145
8.335350848232125
8.154245282910484
7.933215324129161
7.645690049657032
7.26567997536682
6.774319528404663
6.165530099178371
5.449400747164068
4.652322661711938
3.813677316848233
2.979736846475675
2.196092016976172
1.500182851970551
0.9153855996319533
0.4477347339158994
0.0858318233023745
-0.1961007479783374
-0.4326360868989746
-0.6601337725635078
-0.909741683797717
-1.201894723584368
-1.543479061212057
-1.928184250449994
-2.33976234425212
-2.757224322650008
-3.16065478823716
-3.536338574914087
-3.880154331899014
-4.198600968789608
-4.507306011737454
-4.827347222491387
-5.180162214789407
-5.582180074189179
-6.040469419817255
-6.550536268015276
-7.096895139619971
-7.656297551157365
-8.202796011238355
-8.713409106217911
-9.173104476948598
-9.578043316518908
-9.93642818154678
-10.26677031552861
-10.5938642069218
-10.94320479930321
-11.33498242380457
-11.77902191284483
-12.27193462592952
-12.79725682356661
-13.32856765733494
-13.83480329398413
-14.28649131707225
-14.6615013213555
-14.94908586252559
-15.15140574074367
-15.28228898171377
-15.36352295157033
-15.41945821881475
-15.47109315898732
-15.53101822707464
-15.60048671668921
-15.66938211326992
-15.71908306167191
-15.72746577141786
-15.67479530608189
-15.54911624414572
-15.34991641240148
-15.08924822434142
-14.79003940021336
-14.48187983827107
-14.19509535707182
-13.95438600028122
-13.77357058601626
-13.65284527624527
-13.57936259974054
-13.53103059282563
-13.48257272983584
-13.412377551744
-13.30855447953403
-13.17282402764898
-13.02134569156821
-12.88221721140302
-12.79001936600953
-12.7783736609965
-12.87200851787353
-13.08015349253349
-13.39296401543976
-13.7819980455329
-14.20470102431905
-14.61184225378949
-14.95623990099345
-15.20095741722912
-15.32534819128679
-15.32779748937424
-15.22465878758455
-15.04557210717511
-14.82604306098804
-14.59883422927751
-14.38619017621372
-14.19487084681022
-14.01524647828771
-13.82454023283032
-13.59320656713111
-13.29278660987592
-12.90340713421915
-12.4192629328691
-11.85088132886063
-11.22363154950745
-10.57268640432654
-9.935410138069416
-9.34287213298944
-8.812633799597496
-8.344794849148746
-7.922407100264742
-7.516085303208976
-7.091529338623228
-6.618092007195704
-6.076462077630956
-5.463816765545392
-4.795333360919049
-4.101644170154318
-3.422569713301462
-2.798250406452384
-2.259573254466697
-1.820284225959614
-1.47298093187025
-1.190155186479507
-0.9299851951283301
-0.6453240381559466
-0.2937095101535746
0.1538007275122732
0.7067864973009048
1.353791954099537
2.065208883889428
2.80026074907097
3.516752344036088
4.181404195340417
4.778103353237111
5.311711935086869
5.806293462725718
6.29828102378406
6.826479517301332
7.421427686493319
8.096602933451058
8.843462716434589
9.631523572439528
10.41370111871729
11.13608841278936
11.75029522153507
12.22555729853028
12.55745317816566
12.77066366662267
12.91477839290346
13.05410321069846
13.25393737177919
13.56643367365369
14.01903607087334
14.6078717070354
15.29750375701724
16.02725952979126
16.72309056082056
17.31269789710092
17.74065226260353
17.9798855126872
18.03665062683178
17.94779507408684
17.77131017007158
17.57274561490677
17.41075989820251
17.32493335390198
17.32829873470387
17.40602640060401
17.52048663434914
17.62164922028124
17.66056687161416
17.60273420153869
17.43786525613077
17.18346287177734
16.88131312642984
16.5880296356537
16.36221071259823
16.25131297860589
16.28114095737544
16.45016825024976
16.72989817495399
17.07128365305481
17.4159951836351
17.71014969041207
17.91724635878578
18.0269798021878
18.05762092357632
18.05148601059782
18.06490077823494
18.15530939108183
18.36855361271891
18.72904750804529
19.23484108511444
19.85853863575011
20.55385746568094
21.26642963167642
21.94638359112422
22.55955906289099
23.09434639635429
23.56230870186411
23.99256708489389
24.42165618692695
24.88158465466195
25.38902865837676
25.93815841448589
26.49876749386351
27.02027000681962
27.44090805110607
27.70034961281559
27.7529203282005
27.57828603388257
27.1868517356515
26.61851443337214
25.93521464959652
25.20926515654413
24.51023357998498
23.89319177839416
23.39065648280979
23.00973439604492
22.73494194365048
22.53600715807299
22.37884332734968
22.23701265107739
22.10069440158609
21.98076088625465
21.90697987091662
21.92103839836856
22.06636245531403
22.37726136362366
22.86982269149403
23.53647296371083
24.34536946629317
25.244838995391
26.17200731999835
27.06375864232438
27.86748312616913
28.54900434940867
29.09581328902955
29.51508688037264
29.82739970322621
30.05803470175971
30.22815550032486
30.34788711123463
30.41276120818256
30.40420891163107
30.29394516569094
30.05125600329973
29.65147615310605
29.08352262080055
28.35447842847687
27.4899988245852
26.5304922061155
25.52413617293623
24.51846796918028
23.55245018848705
22.65064176350503
21.82054715912309
21.05352750367152
20.3289549892984
19.62065024770025
18.90413992733222
18.1630454144188
17.39311572767871
16.60306084032862
15.81220766372383
15.04576933480957
14.3289819994689
13.68147873099734
13.11307724377546
12.62174905249695
12.19405011336428
11.80783181540584
11.43664059225934
11.05487250879183
10.64256885176562
10.18883162800984
9.693207181806871
9.164899650259978
8.620168402712487
8.078628901269624
7.559350754519075
7.077582309583264
6.642663807997008
6.257365211299487
5.918619429560449
5.619410457023761
5.351380623040726
5.107580993745432
4.884767596996309
4.684745042942761
4.514446789157089
4.384710312289751
4.30803319005002
4.295869921257003
4.356097364020878
4.49112125053261
4.696878120085508
4.962847836281604
5.27309922138883
5.608247626727015
5.948007935702933
6.27385819525208
6.571252242396374
6.830876631554243
7.048676123706799
7.224745459553627
7.361537802949901
7.461959523934646
7.527774560791653
7.558529168256073
7.551108601185775
7.500011242656184
7.398343430590845
7.239376502681553
7.018331952077006
6.733934746554653
6.389263030244142
5.991590370216069
5.551248532190807
5.079872201261862
4.588510210452859
4.085959032117755
3.57748461117095
3.064036548126317
2.542095579903627
2.004287234541442
1.440781625411554
0.8413164525158483
0.1974846327914819
-0.4951989232747299
-1.235899030827326
-2.017957157617996
-2.82923555833022
-3.653123030924637
-4.470060767401156
-5.259507240874445
-6.00218513933928
-6.68229617739237
-7.289302168195677
-7.818916229322212
-8.273110184370019
-8.659181829448109
-8.988150117220506
-9.272850096248355
-9.526051800999825
-9.758809225555913
-9.979180446755588
-10.19147751932503
-10.39619126900734
-10.59059386783433
-10.76981719020818
-10.92806983110513
-11.05964592587668
-11.15949045531332
-11.22327878384124
-11.24714005524871
-11.2272130534845
-11.15918525338276
-11.03791633735281
-10.85725133343908
-10.61017082716961
-10.28940868689937
-9.888528900642825
-9.403268691623854
-8.832849879008203
-8.180978627527209
-7.456366703085536
-6.672752340698821
-5.848491567374622
-5.005788821560443
-4.169582047502866
-3.366072323680897
-2.620947048979821
-1.957467335508043
-1.394663804125567
-0.9458323616353846
-0.6174126784940037
-0.4082889358879114
-0.3095938379239345
-0.3051444334783243
-0.3726089291538702
-0.4853697387501125
-0.6148608102007072
-0.7330139516817665
-0.8144216830223574
-0.8379269366244048
-0.7875286977252741
-0.6526403004744652
-0.4277912611765754
-0.1118794486679464
0.2928587217737674
0.7818942445690522
1.349149888914287
1.987196023724224
2.686855180497136
3.436431322817006
4.220967855488032
5.021968994605724
5.817880291242033
6.585381998421251
7.301329565464878
7.945063180863282
8.500761283108785
8.959451267779789
9.320229620550606
9.590279793148454
9.783480950944236
9.917749986776796
10.01162585170733
10.08083214417672
10.13555657979231
10.17898118045382
10.20727670795264
10.21097341301549
10.17742668898478
10.09397920778627
9.951305741408753
9.746322099290254
9.484032270371761
9.177854478563571
8.848311862378042
8.520396578426336
8.220246372550724
7.971880514751833
7.794614584294716
7.70150597100113
7.698920555268506
7.787145527164574
7.961867651234092
8.21621526802746
8.542925735738915
8.936109768776559
9.39211466122021
9.909202956731066
10.48613980920402
11.12016430236253
11.80501547995128
12.52961327858501
13.27774038965502
14.028804139766
14.7595822831175
15.44673543849732
16.06973375961013
16.61371068662217
17.07167424757106
17.44551923749978
17.74545790905712
17.98786210506294
18.19197923397421
18.37631590014751
18.55550116748956
18.73818587520375
18.9262182293451
19.11512102569857
19.29575695906795
19.45691682465958
19.5883938791752
19.68395030952856
19.74347615298683
19.77369463424303
19.78710283839212
19.7993890311603
19.82605079182262
19.87908086402125
19.96439135853624
20.08035477245853
20.21764813833386
20.36046668007786
20.48901403550141
20.58295213352898
20.62523098614957
20.60546427204137
20.52192901581726
20.38155088077232
20.19786825042074
19.98760821224739
19.76678737874974
19.54712709984078
19.33331751264146
19.12150967674774
18.89932814814216
18.64753703876542
18.34321557461252
17.9639364079058
17.49206404033262
16.91808992487409
16.24212900042913
15.47331758655871
14.62752973769723
13.72417711335336
12.78280984632776
11.82004351489172
10.84722331854439
9.869188833941749
8.88441024939523
7.886582212316879
6.867470209497501
5.820425096572316
4.743680740020401
3.642577057014632
2.530248034180911
1.426812789285025
0.3573977365574411
-0.6506450853793581
-1.570982148708702
-2.381603879583224
-3.067695176904919
-3.623551153357661
-4.05311218617307
-4.368937441840046
-4.589834422832756
-4.737754602970173
-4.834703655044644
-4.90023513394294
-4.949793436009965
-4.993974377613506
-5.03872048248088
-5.086425081989351
-5.13776740533301
-5.193881738697726
-5.258298645815383
-5.338073202214043
-5.443701043484714
-5.58782208126522
-5.783142800239057
-6.040204036913674
-6.365513561995352
-6.760332186260397
-7.220246668161328
-7.735609796937233
-8.292860791796752
-8.87656875367542
-9.471818345544525
-10.06639236956352
-10.65217970004953
-11.22541355946953
-11.78572732232416
-12.33442395074283
-12.87254071155724
-13.39920532577122
-13.91059135141949
-14.39963864787497
-14.85661227074305
-15.27045629762026
-15.63072683783533
-15.92970915797864
-16.16420246755681
-16.33644463545821
-16.45382130354492
-16.5273761358746
-16.56953704783036
-16.59165477027356
-16.60187823280606
-16.60372833567402
-16.59560099204488
-16.57131937186881
-16.52170376056459
-16.43692187613545
-16.30917063859041
-16.135086298848
-15.91725265552948
-15.66436850356894
-15.39005558141868
-15.11073195099096
-14.84317272617169
-14.60229234503456
-14.39949207852716
-14.24176699822331
-14.13166037361515
-14.06803844124192
-14.04751318444587
-14.06618311748066
-14.12122142784745
-14.21177780442396
-14.33879872653846
-14.50376352351243
-14.70677923674598
-14.94467314739049
-15.20960805464566
-15.48851472776877
-15.76345145426446
-16.01287353477604
-16.21367681921891
-16.34374389473171
-16.38457698486926
-16.32347723155791
-16.15470298543759
-15.87924177579923
-15.50329169767446
-15.0360278939354
-14.48740276334562
-13.8665474998154
-13.18103743944467
-12.43704799015789
-11.64027835818369
-10.79740106669483
-9.917682461027832
-9.014327555804497
-8.105058117960038
-7.211495123587276
-6.357193867245431
-5.564683070956109
-4.852330302130884
-4.231946472917727
-3.707705753593947
-3.276487868459197
-2.929434993293271
-2.654394705671949
-2.438862838282498
-2.272947513340401
-2.151770610034801
-2.076686167546993
-2.054814633734126
-2.096764784401024
-2.213025951858117
-2.410070101383802
-2.687317490268175
-3.035723228375648
-3.438159931650056
-3.871357243978212
-4.308989324006818
-4.725428476908449
-5.099575016640165
-5.418044159501967
-5.676940229965646
-5.881590214145661
-6.044050117678979
-6.17890553712416
-6.298532670027602
-6.409145985319087
-6.50856064814919
-6.585983952245859
-6.623686795237287
-6.600168909318747
-6.494281915453922
-6.289615530906323
-5.978321495588179
-5.563523490761792
-5.059613831329956
-4.490172033980292
-3.883948050067766
-3.270017625607285
-2.673408498179856
-2.112128836266212
-1.595945978111257
-1.126842368364995
-0.7008945522738369
-0.311211548628657
0.04860649518832764
0.3812283703893858
0.6834064316758779
0.9455644055131482
1.153455032374193
1.291495765777744
1.346758391989865
1.312421620836344
1.189858450035153
0.9890809926914064
0.7276412387907888
0.428221161010041
0.1152231104904105
-0.1891537141357231
-0.4686366979747901
-0.7155585599384064
-0.931740218855432
-1.127227677490841
-1.317192414034809
-1.517911665137952
-1.742926837986728
-2.000195133607191
-2.290609321806105
-2.607958838173222
-2.940275435192487
-3.272387401389497
-3.589278218003056
-3.879568703660255
-4.138268061492278
-4.367993547182835
-4.578227119813227
-4.782816441139142
-4.996531738170717
-5.231692583836584
-5.495637809504865
-5.789416689302616
-6.107797936901938
-6.44055293053023
-6.774838471168102
-7.09828869590017
-7.402174738450652
-7.683828866157955
-7.947574879084404
-8.203756664663048
-8.466078860973003
-8.748068237058096
-9.059668252079677
-9.404748934873032
-9.779927669112027
-10.17480292090556
-10.57352747974279
-10.95748922200676
-11.30866647692098
-11.61302112068265
-11.86316717840226
-12.05959757398421
-12.21007076440003
-12.32733705844548
-12.42594074066068
-12.51902594284049
-12.61586985249192
-12.72052797440377
-12.83171375501932
-12.94385517884673
-13.04910035529517
-13.13986169086497
-13.21133056418147
-13.26330735438939
-13.30074305043883
-13.33268502424897
-13.3698586401605
-13.42162992830644
-13.49325066263641
-13.58406092587272
-13.68697379040343
-13.78929425551411
-13.87473811362256
-13.92634963256524
-13.92983860951579
-13.876688414532
-13.76628977934864
-13.60643654418952
-13.41189044895651
-13.2013365450001
-12.99359602346036
-12.80410165242689
-12.64237293687633
-12.51083854407615
-12.40505734717047
-12.31519763138126
-12.2284823339482
-12.1321632837429
-12.01645117230502
-11.8767303533601
-11.71442075218139
-11.53615388770335
-11.35150473180299
-11.17006158674247
-10.99875853178971
-10.84012169187512
-10.69168528390206
-10.5465448866799
-10.39484712384233
-10.22590238533781
-10.03051936117483
-9.803092135559202
-9.542930580869145
-9.25437911486202
-8.945544363968622
-8.625958250857002
-8.303964490221684
-7.984690240455905
-7.669135868455262
-7.354482455779889
-7.035419330767865
-6.706149417968577
-6.362664410562578
-6.004849426865341
-5.637962625815518
-5.273046985466231
-4.92593641513357
-4.614830339068273
-4.356922232455058
-4.165004115767393
-4.044996502447058
-3.99495929947232
-4.005636671871461
-4.062250896369556
-4.14711465259091
-4.242580012566534
-4.333820813321415
-4.410943943946736
-4.469958743354979
-4.512259435900121
-4.542596423568712
-4.566025364350274
-4.584765762243372
-4.595939295012855
-4.590768213403545
-4.555303960617168
-4.472404964719238
-4.32452007259602
-4.096761256525405
-3.779714108406928
-3.371445174666504
-2.87823264397835
-2.313709260831782
-1.696452575549557
-1.046578744002316
-0.3823227422575751
0.2824178479787756
0.9390479160583621
1.583775710129083
2.216027292535587
2.836265923267029
3.4437113153904
4.034438284784882
4.600305806220356
5.129093540953578
5.606045847353813
6.016667357897619
6.350115771704284
6.602171744535016
6.776850554406588
6.886240121881153
6.948743739870191
6.986250727762683
7.0208258328863
7.071456544829337
7.151348831541905
7.266222356055902
7.413973753152542
7.585888410578951
7.769228602144131
7.950559083089519
8.118851607643178
8.267515484753767
8.394987687434453
8.504035783899242
8.600195645817346
8.689779973283269
8.777821145154286
8.86628097852781
8.952868055615596
9.030776356475055
9.089525352827083
9.116793209319386
9.100747480600981
9.032129287281043
8.905468214372267
8.719224973437939
8.475062372454627
8.17661164816222
7.828060962122604
7.432805377995347
6.992371596880206
6.505851540124211
5.970069424056947
5.380602937494287
4.733544536224342
4.027576364179249
3.265742622987202
2.456415087601049
1.613277494705876
0.7544466745169922
-0.09903649311883739
-0.9251199384277314
-1.702843711064994
-2.414381530429059
-3.04670177525887
-3.592498125800974
-4.050112184341518
-4.42240407287101
-4.714885291326288
-4.933704795299534
-5.084067513960194
-5.169406367497648
-5.191351997563287
-5.150387575873717
-5.047005332538633
-4.883124251639279
-4.663474049603868
-4.396622766074695
-4.09533102169022
-3.775980124878027
-3.457024561963871
-3.156774739372328
-2.89112688845615
-2.671874557382983
-2.505955737266008
-2.395642962030949
-2.339463468797919
-2.333560182691462
-2.373202303994511
-2.454173260022838
-2.573781110772984
-2.731248192837036
-2.927285099880035
-3.162833063610706
-3.437285308776207
-3.746784293984979
-4.083197651395661
-4.434095633601846
-4.783709707361997
-5.114627809038199
-5.409888789052476
-5.655117588176445
-5.840361697586459
-5.961333885499441
-6.019817818972995
-6.023074956124189
-5.982284761845819
-5.910367097503254
-5.819793823863625
-5.720976952937008
-5.621537727324417
-5.526436890326747
-5.43874382074338
-5.360738175439208
-5.295019628524664
-5.245332954096865
-5.216882701694918
-5.215979445297379
-5.248938260063831
-5.320323957213803
-5.430929261610663
-5.576108126460846
-5.745044927518603
-5.921227649045719
-6.084030703640759
-6.211074848442379
-6.280931170465548
-6.275728147796004
-6.183274698472935
-5.99839049048398
-5.723205036613387
-5.366285653153677
-4.940675678779883
-4.461271113798898
-3.942239069913465
-3.395152645173042
-2.828189778187467
-2.246353128162411
-1.652414112588262
-1.048196000335794
-0.4358351566289307
0.1812520202638919
0.7978682887681625
1.407110902014353
2.001090144445378
2.572226048456247
3.114791590041509
3.626137811730686
4.107082025826782
4.561283738388463
4.993834395480643
5.409514467561823
5.81118513680705
6.198670004475835
6.568332467582139
6.913418644583794
7.225142222307707
7.494414372320199
7.713983249421746
7.880512665063548
7.995958734347669
8.067724896512665
8.107493190857102
8.129083459278691
8.145935492416818
8.168808517980743
8.20415345000427
8.25343082819324
8.313469050482473
8.377810767256273
8.438868501225015
8.490535313207126
8.530655899830103
8.562620949820325
8.595522196106662
8.642782808055506
8.719675876443116
8.840404036994983
9.01540950667122
9.24943716805131
9.54068614582054
9.881197918160943
10.25845084852454
10.65794125321012
11.06628382595854
11.47408662035461
11.87773738429842
12.27948964139851
12.68581154176835
13.10453314147058
13.54160828928353
13.99827820063779
14.46924259905241
14.94222856903508
15.39911856447191
15.81855398401445
16.17966830615083
16.46631025121883
16.67083552538008
16.79645964685351
16.85747255685095
16.87725798343894
16.8846898454556
16.90978057713287
16.97942089580291
17.113874239294
17.32451231274286
17.61309583211946
17.97267294077191
18.38988232592369
18.84812845818699
19.33081422877083
19.82374487928995
20.31611190575064
20.80003777653087
21.26918074310394
21.71708511399288
22.13582783360917
22.51527759947396
22.84311756485979
23.1056805566858
23.28952612305554
23.38351799805521
23.38095283550815
23.28111107299659
23.08960253729662
22.81719794655854
22.47737978010389
22.08330402365544
21.64499027212883
21.16736794501596
20.64950725943249
20.08512662318432
19.46430702920532
18.77619183590138
18.01227346347144
17.16967648870032
16.25369577138571
15.27887781201115
14.26826366666801
13.25094721519737
12.25855708416735
11.32143424711842
10.46518061632874
9.708062502147673
9.059581080960148
8.520373695519648
8.083446502072208
7.736537916388948
7.465170004292936
7.255715977045386
7.097747916295483
6.985160072590525
6.916006863376498
6.891386450212631
6.913852307602719
6.985784574411831
7.108047934282006
7.279179871614208
7.495270308343285
7.750578789828069
8.038784023650077
8.354571108916238
8.695072416760585
9.060622119514969
9.454490126599392
9.881666613547528
10.34713180796171
10.85417652628068
11.40325294892749
11.99166936643345
12.61428351832817
13.26518445312724
13.94015056439135
14.63943522269633
15.37019365685664
16.14771274952156
16.99470472759249
17.93838931303462
19.00577824390018
20.21814516954202
21.58586928812888
23.10472748890647
24.7544535496014
26.50006246585479
28.29602311407977
30.09283858103814
31.84502057021874
33.51895851707533
35.09899399037188
36.59031579817233
38.01810497518204
39.42338967444692
40.85683932515987
42.37191984869518
44.01854444466026
45.83793511278947
47.85907315351779
50.09681914640233
52.55145378401696
55.20913608302588
58.04278461959581
61.01319761004392
64.07064075269359
67.15739407356115
70.21175604617076
73.17374156465762
75.99212931449726
78.63169127535608
81.07874378246645
83.34293716855221
85.453421305641
87.44814122120285
89.35639691212054
91.17719941514892
92.8585639535421
94.28401076262261
95.27116633709652
95.5842158711906
94.95870594622338
93.13473194451088
89.89282601221686
85.08593815832414
78.66107285900502
70.66538199421291
61.2338325660462
50.55951381232251
38.85312217456814
26.30289576388942
13.04697493206923
-0.8341956957954801
-15.30467707995417
-30.34403063918651
-45.91048739891204
-61.90524394070781
-78.14651693830292
-94.36041484711536
-110.1928083899403
-125.2422170053783
-139.1083342430629
-151.4453813336366
-162.0068027045565
-170.6701675559112
-177.4377075841226
-182.4152328930419
-185.7769434614907
-187.7249442298821
-188.4512863508378
-188.1087377709197
-186.7948403443852
-184.5516832371142
-181.3806990023359
-177.2679983781799
-172.2126990578325
-166.2500756349447
-159.4637051649339
-151.9848650558318
-143.9812788884109
-135.6395230595227
-127.1456863935273
-118.6678742484001
-110.3429651347234
-102.2692140215264
-94.50550075015018
-87.07677491914377
-79.9837587124827
-73.21400007394845
-66.75151550235192
-60.58337206275327
-54.70288825022836
-49.11006828228395
-43.81028551293148
-38.81218983804274
-34.12550671051071
-29.75909113092223
-25.71944126967039
-22.00974129955349
-18.62927449309916
-15.5728645276278
-12.83011080863523
-10.38459460232258
-8.213614042422787
-6.288990754271303
-4.579089644404379
-3.051749255198469
-1.677584597182515
-0.4330809062157546
0.6970571414754057
1.718749079017356
2.628905702155208
3.417482749063823
4.071103424336076
4.577692563135068
4.931086307316444
5.134373592342849
5.201041169998955
5.153716152889059
5.021008538786805
4.833330580138974
4.6186179080534
4.398769006875625
4.187458848720311
3.989774962577367
3.803838124874487
3.624167247847458
3.446040567615916
3.269649067934561
3.102719769454276
2.960701001307678
2.864404349832559
2.835768946234343
2.892834206581967
3.045075928579273
3.290120077912987
3.612575604910377
3.985350076861329
4.373363991611359
4.739086305928227
5.048828027301356
5.278400163041787
5.416766621637117
5.466809351540601
5.443135110793516
5.367625594919913
5.263858637111662
5.151596131979845
5.042400510961034
4.937200246456015
4.826285460309667
4.691771019185659
4.512035247799796
4.26713157102219
3.943863951382058
3.539264801714495
3.061646820620846
2.529095474144599
1.965945857141576
1.398182447354706
0.8487798598230571
0.3338960275838392
-0.1393730708747336
-0.573245691856078
-0.9774329941011928
-1.365585943499752
-1.750797834578212
-2.141283903099322
-2.537416515404668
-2.930970558788847
-3.306791817650513
-3.646410901949076
-3.932673336543456
-4.154316631579313
-4.309509368513978
-4.407591115296895
-4.468560501658696
-4.520221728936346
-4.59333562430117
-4.715628258558029
-4.905962311354795
-5.170140305456732
-5.499487042766749
-5.872594697447028
-6.259751466843327
-6.628979629572316
-6.95238070405547
-7.211534902679511
-7.400942141299233
-7.528850709157599
-7.615245164733455
-7.687273731498634
-7.772992781186888
-7.894856304208608
-8.064618159133412
-8.281011804154556
-8.530757685187933
-8.792496023701702
-9.04256569358675
-9.261271261884856
-9.43830625985108
-9.576228715739038
-9.691233593526686
-9.810895765738165
-9.969107991106341
-10.19911964633516
-10.5262254642497
-10.96195148310133
-11.50127950628136
-12.12357924743347
-12.79688213668248
-13.4843749780722
-14.15165289579902
-14.77326208875553
-15.33728290919162
-15.84705969490453
-16.31961893355683
-16.78088151977348
-17.25851314582811
-17.77401468052958
-18.33607393603063
-18.93695563108501
-19.55282186729468
-20.14778508394721
-20.68066083495874
-21.1129459427227
-21.41642334850558
-21.57891840208185
-21.60703533260772
-21.52514347327333
-21.37052502369012
-21.18549099910443
-21.00822176116415
-20.86464336246108
-20.76341850458336
-20.6951545799378
-20.63571969262977
-20.55263107920348
-20.41298557138736
-20.19124530244036
-19.87529787095962
-19.4695228306964
-18.99407542531275
-18.48029872640362
-17.96313480913387
-17.47239999872867
-17.02532870073806
-16.62247104184644
-16.24793897923793
-15.87370417693208
-15.46670961151557
-14.9971071927367
-14.44585988886688
-13.8101435936061
-13.10537357317947
-12.36322517110507
-11.62578586581346
-10.93698211663049
-10.33338157558001
-9.836854375734196
-9.451048129611603
-9.162398986405476
-8.945094349776678
-8.76853567513011
-8.605505922586504
-8.439280004875181
-8.26820720585381
-8.106757697068682
-7.98263182571243
-7.930343800653425
-7.982677079977831
-8.162221001975032
-8.475337242952715
-8.910165245959098
-9.438999035202148
-10.02418091440177
-10.62595352557737
-11.21047755311997
-11.75631752720543
-12.25805028810949
-12.72618949982909
-13.18328966001258
-13.65691920022063
-14.17110439225967
-14.7384837042882
-15.35533353950411
-16.00075418486232
-16.64006947241689
-17.23146594126314
-17.73432230900384
-18.11746104215796
-18.3655956263056
-18.48256835304218
-18.49054006339638
-18.42502998607586
-18.32660875891361
-18.23102340290321
-18.16018541176663
-18.11633429520981
-18.08075674780514
-18.01715396770073
-17.87867477504171
-17.61701135107135
-17.19169890785642
-16.57777881448844
-15.77029185477011
-14.78463567780416
-13.65259036755971
-12.41479242578661
-11.11148920192413
-9.77408227065512
-8.419796599116196
-7.050778187897162
-5.657533658564246
-4.225496236953516
-2.742910696924947
-1.208089590834837
0.3657202067362134
1.949131102535359
3.499602634524751
4.968275572904791
6.309332657631033
7.489672305910259
8.496283750753662
9.339190733284788
10.04910456276435
10.67044347174996
11.25152047621377
11.83420625051073
12.44532672662842
13.09161878491162
13.75933715794281
14.41869495117322
15.03233781442314
15.56605859941275
15.99915631899624
16.33165897311666
16.58636987854862
16.80516537539916
17.04055952172093
17.34466948027663
17.75814336584105
18.30147037002602
18.97054452559916
19.73748660849801
20.55667124104195
21.37481468895738
22.14297021115284
22.82757819341349
23.41772608838107
23.92671920976989
24.38767094697597
24.84443848019309
25.34028253075144
25.90694286153742
26.55655189567862
27.27813602561377
28.03947552232848
28.79395540809574
29.49093482176494
30.08725581049174
30.55703939834817
30.89720122728901
31.12725954482868
31.28362785109193
31.41004173625043
31.54659525895816
31.71998151555505
31.93712589901671
32.18363446708845
32.42745019476342
32.62696987772158
32.74183158170088
32.74383553900728
32.62525746158205
32.40238805553668
32.11341729698103
31.81130288909474
31.55345631582843
31.39064706498661
31.35748893941168
31.46640898539299
31.70625192890899
32.04572834913753
32.44090362076727
32.84502745383392
33.21840693154508
33.53594093209038
33.79051930695087
33.99163351276594
34.159833840877
34.31866075595844
34.48614263642187
34.66788185993828
34.85327321228944
35.01567769773071
35.11654989787771
35.11269993139724
34.96516895320591
34.64774866291877
34.15316349493854
33.49546930460985
32.70817572867944
31.83863957932639
30.94009053215949
30.06306861483593
29.24803178438334
28.52049902224696
27.88947908852131
27.34924167847111
26.88381506778415
26.47303461195721
26.09863875748031
25.74892938029631
25.42091730658657
25.11956091583236
24.85446916834624
24.63506807421672
24.46557007736174
24.34106874886769
24.24574642113824
24.15366369201747
24.03203418614032
23.84635950572169
23.56637061678649
23.17148139324407
22.65450790029521
22.022783521203
21.29642362503557
20.50417835190192
19.67785852363575
18.84659146454392
18.03211743229626
17.24603050438485
16.48941898096607
15.75487152580207
15.03034323366351
14.30397578656968
13.56872620747219
12.8256772521474
12.08522317565299
11.36587910665401
10.69107154613759
10.08472955129404
9.5666915930141
9.148872454725307
8.83288449905564
8.609482093586475
8.459858849585641
8.358493920387906
8.276939887081033
8.187732743771745
8.067572285529533
7.899129352506923
7.6712471193682
7.377763779675956
7.015514479118109
6.582179086005256
6.074545497013798
5.487537094826903
4.814111028710871
4.045942998614536
3.174683279601786
2.193487153769015
1.098504042404477
-0.1099374030210367
-1.426606047733974
-2.84113653752099
-4.338203601563521
-5.897958256647483
-7.496596883353765
-9.107004374897082
-10.69950111846009
-12.24278348345655
-13.7051479893612
-15.05603678533899
-16.26784625069343
-17.31780290243388
-18.18957576099039
-18.87424888185556
-19.37037615891222
-19.68306140906184
-19.82226363250983
-19.80071273960089
-19.63187699842931
-19.32836189698662
-18.90098449532663
-18.35861349387828
-17.70873881275109
-16.9586274703137
-16.11680014290578
-15.19444526348637
-14.20635347541943
-13.17106330841705
-12.11013569132565
-11.04671348091857
-10.00366456643689
-9.001643318592153
-8.057390121696393
-7.182537360778984
-6.383087009019235
-5.659593503929445
-5.007968813019469
-4.42073522659946
-3.888483155680194
-3.401270479171154
-2.949761779672094
-2.526032811492505
-2.12406799619128
-1.739993372913386
-1.37206676417497
-1.020465524896475
-0.6869438986172068
-0.3744170858443425
-0.08648830741867608
0.173073127230246
0.4008684749204978
0.5943681292679314
0.7523219249020157
0.8750252116020897
0.9643674071644165
1.023619822424357
1.057018515293719
1.069274722608688
1.065121190521017
1.048934432961151
1.024454350611048
0.9946474104577963
0.9617628595931007
0.9275923208470138
0.8938861263803
0.8628235398365369
0.8373844741095606
0.8214575628572404
0.8195958296224147
0.8364840314187914
0.8762987259457716
0.942140504701264
1.035645293950346
1.156823676063568
1.3041473763154
1.474874825731608
1.665577371867563
1.872792121622553
2.093674988282696
2.32647281454609
2.57063570260282
2.826504292409629
3.09469321744799
3.375419748806916
3.668010278930628
3.970708235041719
4.280802674831063
4.595030105537878
4.910158139625158
5.223629682891731
5.534124130344373
5.841867216364145
6.148511195739076
6.456469434615546
6.767763827766996
7.082666494963764
7.398542108622417
7.709241981716366
8.005228746534744
8.274430199682264
8.503679295687888
8.680496093100018
8.794912142311071
8.841024995684997
8.817979994016774
8.73011664669751
8.586145349523187
8.397468871270434
8.1760443059771
7.932332576658855
7.673829979394428
7.40448818821125
7.12510624384672
6.834571203804432
6.531660949130936
6.217029726189296
5.894972026402956
5.574575039089522
5.269926684904122
4.999196769203113
4.782674871110398
4.640138247737667
4.58808692331709
4.637363694293303
4.791540390529616
5.046281598229689
5.389725380757955
5.803755680487422
6.265898855880877
6.751478319215548
7.235629310715479
7.694836700688147
8.107826139305322
8.455878031114409
8.722844042810546
8.895216383818779
8.9625064659948
8.918007377108601
8.759830824379778
8.491964950576659
8.125022180443423
7.67636648289683
7.16941990730763
6.632107287420643
6.094579788381286
5.586538283166226
5.134594185617702
4.760102796185264
4.477794080842512
4.295362899578208
4.214005973000625
4.229720944100306
4.335031052862327
4.520712038182055
4.777122531614546
5.094871270883738
5.464744910169634
5.877023707114556
6.320486996737286
6.781499382962981
7.243536407857438
7.687376859944285
8.092017552575808
8.436212662102042
8.700427625160785
8.868916667862953
8.931579201420163
8.885249296953548
8.734144277915211
8.489331274974859
8.167241229696973
7.787444063678617
7.370055901948989
6.933227062367833
6.491127735233397
6.052726478139323
5.621499828538618
5.196060927411012
4.771561077146653
4.34161212021846
3.900420231451616
3.444807004987167
2.975795416520831
2.499467393391376
2.026905827766984
1.573225611809661
1.155896332568646
0.7926681827095926
0.4994246983080725
0.2882620887435
0.1660619030044194
0.1337603463752749
0.1864224049331443
0.3141222431152973
0.5035036962421593
0.7397343948385682
1.008434813951664
1.297166957807611
1.596239931297025
1.898832576355113
2.200606103972787
2.499031240805167
2.792633987150015
3.080326378502015
3.360946144742193
3.63308387974617
3.895231083685432
4.146215510557286
4.385780925422155
4.615062420373728
4.836703166609245
5.054494251711867
5.272615167574579
5.494680615946255
5.722811473342477
5.95689621404607
6.194155558973743
6.429081274481146
6.653782955323831
6.858737747263635
7.033875083837686
7.169825507448774
7.259063313242698
7.296666331975119
7.280544270715522
7.211179282316643
7.091050107134354
6.923915746168402
6.714077095288009
6.465704043486705
6.182329822956324
5.866634232773722
5.520620721244763
5.146210831365772
4.746132493786682
4.324826884097146
3.889046017719787
3.447914879909287
3.01242446771999
2.594477942744982
2.205668187242066
1.855964640421818
1.55249347971947
1.298618008573789
1.093537581777925
0.9325844381408793
0.8082662533638731
0.7118788506232843
0.6352917159014043
0.5724265285625013
0.5200657909957126
0.4778657300254991
0.4476614469263862
0.4322667752456206
0.4340155643503797
0.4533213866636349
0.487563421167866
0.5306112835171474
0.5732329725847652
0.6044415337892258
0.6135432366853132
0.5923752438161971
0.5371272424681792
0.4492930647165949
0.3355923456761074
0.206967237453057
0.07691071101026918
-0.0405501724536504
-0.1328633855071971
-0.1905946508086871
-0.2083647021872267
-0.1848189594182739
-0.1215655160152053
-0.02134520856384768
0.1139813700517129
0.2849413403499795
0.4949648776431478
0.74979958388115
1.056053248214341
1.41928175754857
1.84208330258654
2.322599021434872
2.853704212395718
3.423065720055527
4.014145553153043
4.608073383012629
5.186051831099284
5.731710727207863
6.232785753135478
6.681737384408713
7.075303717567987
7.413275209978596
7.69689208848182
7.927239509300273
8.103932275079302
8.224296584264232
8.283188422251808
8.27350942555195
8.187351201172719
8.017527389640087
7.759118576177347
7.410650427148987
6.974667797749983
6.457673711770395
5.869558477135634
5.222698674313539
4.530883396231224
3.808181391463623
3.067840860432117
2.321323087310477
1.577585807885207
0.8427185139355553
0.1199869206431646
-0.5897083923305201
-1.287006702630482
-1.973010240091922
-2.648141287836032
-3.311148132693821
-3.958442429778106
-4.583885637330466
-5.179075477842927
-5.734108166962177
-6.238690667431526
-6.683371370249585
-7.06060475574507
-7.365395032781779
-7.595353230423194
-7.750134450888011
-7.83039878508448
-7.836611325960642
-7.768066105258709
-7.622449419666701
-7.396110794657704
-7.08505415656702
-6.686511717154123
-6.200813810134776
-5.633156001454517
-4.994856616924173
-4.303808770796
-3.583997426587911
-2.864116035856372
-2.17547637046108
-1.549542281466844
-1.015474152557644
-0.5980245734297163
-0.3160205213538226
-0.1815440127944949
-0.1997896658480617
-0.369445677101692
-0.6833569623214827
-1.129231247289559
-1.690232047060423
-2.345403043879295
-3.069950813180277
-3.835501200247024
-4.610536743050628
-5.361252023367395
-6.052986085736697
-6.652238465991517
-7.129108220839295
-7.459846921041166
-7.629103874989122
-7.631409628102458
-7.471551341316196
-7.16372541363273
-6.729597385457851
-6.195571485667116
-5.589685424609084
-4.938620090810396
-4.26530662237628
-3.587487845286049
-2.917379322303136
-2.262348826545982
-1.626342870793635
-1.011651758210323
-0.4205455861392519
0.1436201273898863
0.6760435519534617
1.170860539679119
1.622114726406929
2.025047720697638
2.377369620012743
2.680156089820207
2.938088668336017
3.158898841903719
3.352064333843036
3.527000667665302
3.691147637476167
3.848416556028234
3.998393095103843
4.136491394164292
4.255014445550091
4.344882131827784
4.397669058330123
4.407547172435322
4.372751424642691
4.296272229864406
4.18562043568039
4.051702569138236
3.907053806165953
3.763848977691131
3.632188376322943
3.519081593034175
3.42833130945443
3.361242723181307
3.317867907292614
3.298389500576612
3.304247402132281
3.338689349191134
3.406556496298997
3.513284615084693
3.663297255872237
3.858157311155864
4.094976478317234
4.365594019472795
4.656875647030291
4.952175970726677
5.233678664953273
5.485114460260095
5.694311048359062
5.855115830108135
5.968381316879625
6.041861207879825
6.08902404604813
6.126961665728699
6.173745483215781
6.245735229812012
6.355411409841524
6.510201999420897
6.71248392147686
6.960574877132063
7.250272129948937
7.576440356740607
7.934260168918338
8.319915671729351
8.730653484305686
9.164279432774505
9.618279250069579
10.0888482212947
10.57017759280689
11.0543372441706
11.53195218220413
11.99358330664674
12.43140955034129
12.84065491965918
13.22029958602002
13.57287387073427
13.90339318453332
14.21765909734687
14.52024261037134
14.81252333877588
15.09119458483062
15.34763874434722
15.56847963515875
15.73737240391275
15.83771859209391
15.85564715114432
15.78248617764528
15.61614449526261
15.36119636005502
15.02779776238943
14.62974615412504
14.18205975689021
13.6984737317791
13.18926908936766
12.65985492762587
12.11045479293132
11.53703802311388
10.93330366664507
10.2932031393479
9.613344146452185
8.894713633049768
8.143407110603107
7.370316643856322
6.589924543021714
5.818460166997193
5.071727527870208
4.362942558290302
3.700951511154498
3.089196374127581
2.525684631717592
2.004010005627992
1.515241642481746
1.050327593743495
0.6025548420676314
0.1695733356424146
-0.2454398880586971
-0.6337197434021767
-0.9819720966732375
-1.274375254260323
-1.495196862389763
-1.631574693332704
-1.675940578435148
-1.627615500938839
-1.493269786356935
-1.286153307200425
-1.024215752960868
-0.7274658660301627
-0.415113884174574
-0.1030910425079339
0.1975906233339723
0.4813930066830509
0.747685836056901
0.9992174656358251
1.239973507426061
1.472922023821672
1.698166177685411
1.911909747633997
2.106455170048967
2.271242388600057
2.394696984574402
2.466440232009967
2.479335510948802
2.430938514233677
2.324093612757534
2.166588996059508
1.969946189497573
1.747593048793366
1.512813779911288
1.276915691963935
1.047986929742258
0.830490071958015
0.6257629191429732
0.4332624031885853
0.2521513652768315
0.08273931556935894
-0.07259299262000962
-0.2091443471703421
-0.3203174554412119
-0.3986203983120846
-0.4370554771566545
-0.4306027760725095
-0.377450770073398
-0.2796518861592582
-0.1429679049313954
0.02417470291452355
0.2124477431232339
0.4136571885033228
0.6224836703171026
0.8374675569563895
1.061022307582264
1.298504739921812
1.556568741162111
1.8411747541169
2.15568929937455
2.499467579772995
2.86721686527248
3.249341677551763
3.633332431676428
4.006008527976374
4.356133850131225
4.676768016140523
4.966787265004644
5.231228029007657
5.480363290254024
5.727668038159275
5.987049004949674
6.269869550913415
6.582352642711697
6.923895148711698
7.28669707511755
7.656876082198184
8.016883138677725
8.348671432876852
8.636882549094741
8.871367333232188
9.048568015029794
9.171548463565031
9.248723561396032
9.29158699548247
9.311938186875699
9.319222437255279
9.318596993906246
9.31020534202511
9.28986600051104
9.25099437423628
9.187219428575041
9.094992536408599
8.975547761434902
8.835776926245304
8.687841613284684
8.54761243897469
8.432271221059976
8.35759273408544
8.335501143306013
8.372457101746186
8.469073305173515
8.621073904624872
8.821346117075958
9.062513467284424
9.339333794149619
9.650321236138941
9.998228368714948
10.38930339230644
10.83149542563729
11.33199079765548
11.89460781312847
12.51763426845493
13.19263947651814
13.90461868852687
14.63353719517958
15.35699033851844
16.05340746130005
16.70511428950854
17.30064138437714
17.83586180909572
18.31379057024867
18.74312792528113
19.13583799478182
19.50421364913487
19.85799281451542
20.2021180875753
20.53559367621077
20.85159733233804
21.13868219393002
21.38269108985672
21.56893790389987
21.68424614474512
21.71853247323457
21.66576161998597
21.52425366972631
21.29645749602226
20.98839584329173
20.6090452133345
20.1699158482708
19.68498381303918
19.1709080450777
18.64726543523474
18.13646893273803
17.663095614885
17.25248278259901
16.92860875203655
16.71144519175064
16.6141366062239
16.64050411635404
16.78343561906653
17.02464256235255
17.33599203234637
17.68222673611535
18.02454183324166
18.32434982953862
18.54663657462546
18.66248968705702
18.65057664446593
18.49752807606786
18.19733477136871
17.74999705905158
17.15977339537306
16.43344737404123
15.57903869124275
14.60528464047925
13.5220002031414
12.34114487711863
11.07819225952984
9.753297093004072
8.391807329865017
7.023841189781455
5.682858480024083
4.403332414121528
3.217774347868509
2.153507845804066
1.229717939503161
0.4553711679820807
-0.1714382416170355
-0.6623622698264727
-1.035921233214077
-1.313386257445295
-1.514328410744203
-1.652849594925992
-1.735304201892327
-1.759950495484275
-1.718590339829285
-1.599905917270203
-1.393880098449671
-1.096431698159019
-0.7132669919743787
-0.2619894757137264
0.2282356762429018
0.7196693723282407
1.171183379640679
1.54459783315433
1.810871511151878
1.954972000477849
1.978595325677376
1.900298001204563
1.753008148849788
1.579304708688579
1.425264021688464
1.333993138917443
1.34009849084869
1.466184071528172
1.721999580358074
2.106163375557113
2.60973199051605
3.22056392069825
3.927489316769711
4.723556539411965
5.607887381302332
6.585905714681079
7.667957702738982
8.866617423400445
10.19322497675655
11.65438483457429
13.24920106783413
14.967869829801
16.79187288119563
18.69556264345642
20.64864106892158
22.61902399356438
24.57573988655033
26.49166455919284
28.34595859441996
30.12604735712707
31.82890700184007
33.46141036973984
35.03966927426411
36.58764276144784
38.1355258609324
39.71837775518772
41.37512093548445
43.14766808796315
45.07972882745179
47.21489583123912
49.59382948953004
52.25056997902912
55.20809704757642
58.4733459152737
62.03221156675738
65.8456631257924
69.84856059880671
73.95260529680034
78.05396102006404
82.04485408899014
85.82733817677631
89.32661347039625
92.50097541266531
95.34571380502399
97.88893161400469
100.1782470705857
102.2590823668041
104.1479822663347
105.8072477363633
107.1282691397502
107.9291673318703
107.9685147792383
106.9729546191615
104.6736960853047
100.8452153636944
95.33892512602637
88.10516055003325
79.19841900035387
68.76339531496936
57.00352556460894
44.1392911946724
30.36806625194393
15.83758496479418
0.640312500144304
-15.1712114306589
-31.55391497867374
-48.43746529668721
-65.69072613618223
-83.0999726592474
-100.3652704575923
-117.1180710491458
-132.9586360265174
-147.5065650544149
-160.4527621729578
-171.5993114440136
-180.8768888755378
-188.3364537171547
-194.1195537041766
-198.4164012659601
-201.4219240586232
-203.2984341809037
-204.1511424455662
-204.0202565840571
-202.8905601533038
-200.7158179743203
-197.4515650623233
-193.0872207453604
-187.6685779820781
-181.30492472013
-174.1600388143386
-166.4309510308631
-158.3210449512578
-150.0142276677512
-141.6552553870729
-133.3391593841563
-125.1108980477758
-116.9747005001177
-108.9107274425503
-100.8949556214169
-92.91738594108853
-84.99433473013117
-77.17249628090919
-69.52485873459652
-62.14057251069892
-55.11198227833801
-48.52206773291898
-42.43474524127024
-36.88941319047412
-31.90015861699826
-27.45917287118267
-23.54309284191301
-20.12038483042851
-17.15780749101724
-14.62450330641521
-12.49315151103093
-10.7385180508349
-9.334404463785509
-8.250313517309959
-7.449075590870746
-6.886274863850113
-6.511754476518225
-6.272936613584861
-6.11924736808681
-6.006648712679185
-5.901239526898266
-5.781120827602878
-5.636140092312781
-5.465612464288183
-5.274569751364294
-5.069435938115072
-4.854179443328586
-4.627858104581571
-4.38406425599618
-4.112263827967019
-3.800603283053599
-3.439503254359658
-3.025259122477612
-2.562931374699923
-2.06799563008373
-1.566432749311587
-1.09313796850339
-0.6887842603322467
-0.3956172727344182
-0.2529564888525799
-0.2932303819883489
-0.5391429417822257
-1.00224011792144
-1.682897599651571
-2.571585846423151
-3.651130273515021
-4.899584117464765
-6.293247231826059
-7.809240396553789
-9.426974782158084
-11.12806790669442
-12.89481529770576
-14.70794529837456
-16.54464647245222
-18.37764322331097
-20.17567663630178
-21.90540661845019
-23.53450281061508
-25.03545626401142
-26.38944758838542
-27.58948736750396
-28.64198988267457
-29.56603966055818
-30.39005409303063
-31.14634694537875
-31.86488847347631
-32.56783675506237
-33.26605229396493
-33.95815531133475
-34.63211839653182
-35.26896273043918
-35.84776970700403
-36.3509703006481
-36.76879143778397
-37.10180821357918
-37.36081596309928
-37.56382420784343
-37.73085292739812
-37.8780052522018
-38.01251943931892
-38.130063982091
-38.21480275385062
-38.24211282814617
-38.18335891376684
-38.01175727970487
-37.70814983758646
-37.26551423864171
-36.69121743390417
-36.00637193920966
-35.24225992639361
-34.43461237087076
-33.61723745223423
-32.81666310807473
-32.04900641160754
-31.31954496117115
-30.62481246296115
-29.956568142618
-29.30666690963856
-28.6717247319585
-28.05655155941729
-27.475537362918
-26.9515046848889
-26.51207112458215
-26.18427937536502
-25.98886047453311
-25.93563105520607
-26.02112139893185
-26.22887291256705
-26.53222248402492
-26.89889117437473
-27.29634957733669
-27.69683569052885
-28.08105367321119
-28.43984901119838
-28.773483219944
-29.08861676384819
-29.39376196846271
-29.69452100664784
-29.99001903678499
-30.27150509759484
-30.52340401602079
-30.72647129633404
-30.86223521340202
-30.91763511623704
-30.88875803447754
-30.78282641234951
-30.61794646730173
-30.42050098577877
-30.22053304373771
-30.0460360053265
-29.9175131705448
-29.8441809525572
-29.82270263112409
-29.83862749554983
-29.87007578956021
-29.89275856693673
-29.88517868936001
-29.83289640534841
-29.73104735936917
-29.58470618064321
-29.40707455755924
-29.21588507816978
-29.02888150399021
-28.8595804608454
-28.71446427301992
-28.59225942506911
-28.48529659596369
-28.38241831487503
-28.27257267645245
-28.14810674099595
-28.00692109380636
-27.8530408180523
-27.69558480791786
-27.54641461549534
-27.41697070028053
-27.31504696253934
-27.24241215801268
-27.19403770952704
-27.15919382748061
-27.12408194584168
-27.0752545957159
-27.00288704750414
-26.90299143120935
-26.77796848795954
-26.63542493755853
-26.48567234113968
-26.33855550570948
-26.20030495406187
-26.07113220238042
-25.9442667821367
-25.80688638191221
-25.64286801299486
-25.43672501767924
-25.17775713572392
-24.86336919055913
-24.50067509330533
-24.1059489058271
-23.70213203625498
-23.31512547372803
-22.9697445346378
-22.68609634303554
-22.47700260085624
-22.34697680498705
-22.29300450626515
-22.30689305074443
-22.37846990861766
-22.49868008069089
-22.66168981812623
-22.86537302252606
-23.11005035590724
-23.39596961308164
-23.72042959991564
-24.07543592251478
-24.44648820051201
-24.81283413493838
-25.14935679617255
-25.4299940289573
-25.63211597888311
-25.74084063820254
-25.7521577455311
-25.67398195625137
-25.52473247769255
-25.32968665490264
-25.11603095923995
-24.90787277647435
-24.72228435872986
-24.56697483953041
-24.43981755875422
-24.33028029379317
-24.22257356484607
-24.0999001781073
-23.94878160992572
-23.76235628772579
-23.54180456635843
-23.29553601573986
-23.03644178302874
-22.77817968621318
-22.53169788859925
-22.30284613320406
-22.09134530272236
-21.89105984662941
-21.69147702789738
-21.48020468040094
-21.24598132278997
-20.98139443123487
-20.68451437086192
-20.35894550211259
-20.01224156013623
-19.65320364750032
-19.28907602781914
-18.92365323308888
-18.55672545728555
-18.18462544606629
-17.80142407546585
-17.40049859423673
-16.97630762292373
-16.52603100338903
-16.05052686986555
-15.5541232296446
-15.04307947981632
-14.52300385227623
-13.99604375139672
-13.4590151055221
-12.90336043886352
-12.3169352403585
-11.68679630089993
-11.00201962556034
-10.25598201194298
-9.447896090461581
-8.583392859720783
-7.67385407691923
-6.734334696640521
-5.780284698757781
-4.82375220216208
-3.870225475707823
-2.917434508603709
-1.95685646879202
-0.9774864477924834
0.02952774335929773
1.066865504407186
2.128502000451626
3.198951648380976
4.25435210601028
5.265378151741013
6.201746156196652
7.037675088466609
7.757213537587741
8.357955307039987
8.851717607711755
9.261635018683734
9.616546006006693
9.944559415667907
10.26763903990814
10.59825379165711
10.93838231900481
11.28079493808954
11.61236125194005
11.91887509333118
12.19051805955203
12.42668824596983
12.63866385254854
12.84882756070921
13.08624984295814
13.37991757923414
13.75180783350495
14.21177114478984
14.75521903472315
15.36372144428056
16.00817292254314
16.65398612336418
17.26754208358954
17.82280925951187
18.30671892280397
18.72174744383719
19.08457632181127
19.42089621579478
19.75791446181193
20.11694627676664
20.50812611879656
20.92822811624013
21.36162557575168
21.78389013944459
22.16727702726319
22.48713741421621
22.72806785809382
22.88839306216131
22.98156716529523
23.03361288683116
23.07694159894592
23.14229939494746
23.25125974479746
23.41123643008825
23.61390872945147
23.83698216382954
24.04865897048563
24.21393123541287
24.3016394349776
24.29107212429546
24.17673624599193
23.96997729007575
23.69668763958877
23.39150697665189
23.09019203698024
22.82240304516641
22.60670415421484
22.44857637749599
22.34136415764353
22.2695800480639
22.213763103884
22.15596697025086
22.08485523164256
21.99927887001658
21.9092324148774
21.83353264270821
21.79456982023527
21.81162129863136
21.89474770176406
22.04090352323737
22.23299634925318
22.44182270366976
22.63032900754818
22.75939634294363
22.79419542962769
22.71004152151394
22.496594531852
22.15932262529234
21.71762989722278
21.20001682969415
20.63767983196431
20.05840479288903
19.48223203837206
18.91955937987043
18.37163654859
17.8329900507964
17.29512292343723
16.75073895193469
16.19766715153068
15.64158644441048
15.09668417385325
14.58376322164528
14.12611833999496
13.74436307977379
13.4517294139473
13.25100315098169
13.13356812156597
13.08046471348507
13.06507127776206
13.05689840240931
13.02592817294935
12.94685811193617
12.80249632078541
12.58550041735959
12.29790256149964
11.94853971273105
11.54930058603546
11.11145935346226
10.64309134171875
10.14797891526486
9.62592581082337
9.074138115738187
8.489230545948073
7.869399257960978
7.216309145646421
6.53622289330677
5.83990070901209
5.141023390901878
4.453445342266594
3.78818702447817
3.151245902865566
2.542902966046658
1.958571834021081
1.390777691947506
0.8316734150133493
0.2755075456033582
-0.2794447179276269
-0.8298584762614997
-1.367524042734019
-1.880869853778536
-2.357725315141415
-2.788689936786654
-3.170024899618457
-3.505018400197284
-3.803347247446694
-4.07866980298651
-4.345143786797536
-4.613689397318719
-4.888740887977475
-5.1660692923495
-5.43208731187269
-5.664899859578031
-5.8371838667698
-5.92061876201848
-5.891018253899863
-5.732849124221605
-5.441893848708674
-5.025460939713152
-4.500344429194853
-3.889255876503677
-3.21661167642068
-2.50449222004322
-1.769436693769926
-1.020584376290251
-0.2595547022995954
0.5177016263738061
1.31722498894752
2.142320254652521
2.989122843126122
3.843831604162653
4.682408038930637
5.472759584631095
6.178849286293058
6.765903619623872
7.205832533922393
7.482037607531884
7.592881343077601
7.553165604858364
7.393100647762911
7.154646949921998
6.885836997164281
6.634390904682911
6.442131762964604
6.341269557000383
6.352923707897859
6.487699642736401
6.74783840223679
7.130338406349026
7.630411673381293
8.244610541674827
8.97290971509796
9.81904808281133
10.7887521719718
11.88616548564656
13.10957176443605
14.44781319373531
15.87850449962814
17.36853357284227
18.87677908828134
20.35859107772983
21.77134556020214
23.08024848800266
24.26346276809135
25.31553979636484
26.24817760383549
27.08773299061007
27.86974576794397
28.63165387630504
29.40537880986372
30.21134451841348
31.05498804148738
31.92623350190416
32.80187285639464
33.65036560723392
34.43824106060548
35.13701037628287
35.72924208343005
36.21236212113583
36.59907580877887
36.91417165340169
37.18853577388979
37.45194925539369
37.72639194603497
38.0212674577596
38.3314414969158
38.63840283175263
38.91430880651027
39.12821681848603
39.25339989335391
39.27427747139422
39.19130597474452
39.02244569120369
38.80066740241138
38.56808682494499
38.36818896528886
38.23792246879228
38.20127391537877
38.26548080580925
38.42047127521543
38.64154694015065
38.89481566826459
39.14440970618767
39.3600732328373
39.5234080959634
39.63120168378597
39.69497722461593
39.73697944793678
39.78376007652731
39.85901882621331
39.97735646283472
40.14024118596216
40.33493794099834
40.53655508321165
40.71281574895028
40.83065836961543
40.86330894663987
40.79617960942267
40.63007648428171
40.38086363699487
40.07571651971336
39.74698899013346
39.42521991928176
39.13287316840132
38.88011473620494
38.66340371439838
38.46707169069102
38.26751649805475
38.03915894667926
37.76089096472549
37.42148271960927
37.02253133943139
36.578135933406
36.11138394779198
35.64856198722795
35.21250224629684
34.81658968232735
34.46072960495855
34.13010679551102
33.79699922176849
33.4253542648264
32.97731980518578
32.42046350218897
31.7341297402063
30.91347482895241
29.97027747209751
28.9304627157644
27.82906568308272
26.70386268461606
25.58905641731696
24.51025201673516
23.48158662402084
22.50540043368566
21.57435635540864
20.67545994653521
19.79502623291986
18.92338084231209
18.0581279346836
17.20524548679127
16.37793304601742
15.59374515824915
14.8708920242157
14.22465370559014
13.66470195396701
13.19384109764417
12.80835289364273
12.49981293273226
12.25794788820355
12.07383715257091
11.94260151641748
11.86478869585371
11.84602588444482
11.89504798644029
12.020681126736
12.22859171451821
12.51859757752381
12.88315332120288
13.30733804898816
13.77036473943647
14.24836159766601
14.71795468005806
15.15998182129379
15.56252209416617
15.92245692141174
16.24509153811298
16.5418863881189
16.82685506804211
17.11249651533533
17.40619743617943
17.70789372047007
18.00947354359576
18.29603173852225
18.54873204984647
18.74872986116554
18.88135059336331
18.93955738120429
18.92579605947788
18.85166008505653
18.73538823130481
18.59777118104495
18.45741337215528
18.32641075174917
18.20737621376922
18.09242900169647
17.96436026982233
17.79978560797739
17.57373535835326
17.26482992869581
16.85999069185763
16.35764359050799
15.76866013368278
15.11481147045049
14.42511185245721
13.73089678523933
13.0607016009325
12.43596158693126
11.86830655038312
11.35887431810645
10.89970175230036
10.47689896558413
10.07498461060886
9.681494687833645
9.290852020615663
8.906593969685435
8.541437070185863
8.215208628282332
7.951200482898261
7.771828061414813
7.694544721675936
7.72881514915373
7.874688044087047
8.123190305085902
8.4584148851328
8.860822938683294
9.310987108504605
9.792853730974112
10.29569354028966
10.81426961170928
11.34727031957224
11.89454923485634
12.45402247812964
13.01911869238498
13.57749018036472
14.11138114288782
14.59969174098181
15.02140817687357
15.35973171100882
15.60600483371548
15.7624732113259
15.84309367443928
15.87200772590977
15.87985935743548
15.89868063399143
15.95642218980661
16.07225863385285
16.2535750936464
16.49516835692961
16.78078478371121
17.08670733589062
17.38671675515365
17.65743664329841
17.88291211767518
18.05736428383995
18.18545541303857
18.28001985330418
18.35787629748878
18.43480856049152
18.52092568461062
18.61740788070285
18.71527621708688
18.79643025238526
18.83680636740996
18.8111046163585
18.69814840038353
18.48569338688234
18.17353375006257
17.7741274990253
17.31058921686709
16.81257593221224
16.31108635594196
15.83334203316467
15.39874020548804
15.01653536587014
14.68556449310453
14.39599873966774
14.1327531259864
13.87983384934671
13.62463620215796
13.36115480680073
13.09132584527859
12.82424498779214
12.57360888702498
12.35417841527846
12.17820014880575
12.05256822098106
11.97722727299169
11.94504812227238
11.94316292492248
11.95548640698332
11.96587983852335
11.96120143391916
11.93343911428126
11.88032940753358
11.80430528833833
11.71012636611542
11.60191971378611
11.48046036970326
11.34136339727153
11.17458892984411
10.96540195928543
10.69668876134293
10.35227108681445
9.920588151243656
9.39792126774211
8.790337378105917
8.113793449770167
7.392311899309266
6.654637966494784
5.930139400793775
5.244801366325751
4.618033437846744
4.060764580055773
3.575055951043103
3.155226254971732
2.790239152813196
2.466848308420913
2.172785284226791
1.899213206961623
1.641844847918906
1.4005135910398
1.177442352838033
0.9747989352740687
0.7922479661354821
0.6251234833296285
0.4636465597859746
0.2933805404706944
0.09688437048875678
-0.1436980412696167
-0.4435769755615137
-0.8124036421590374
-1.252163670717675
-1.756391535118635
-2.310899532688445
-2.895832664020613
-3.488564458393149
-4.066827484531166
-4.611514136734926
-5.108715165429642
-5.550724661048148
-5.935908376314871
-6.267506386136574
-6.551628488576942
-6.794889782544854
-7.002255258835977
-7.175621881233959
-7.313443479355458
-7.411386872277054
-7.463733547146048
-7.465104320360167
-7.412086723675826
-7.304424206478767
-7.145528552475424
-6.942185901356305
-6.70344941767889
-6.438870625369867
-6.156427607043083
-5.860695217185581
-5.551831363419706
-5.225741669208154
-4.875409217503646
-4.493020609732344
-4.072331842396614
-3.610717449420979
-3.110461581758274
-2.57901089201782
-2.028087309025221
-1.471745748877133
-0.9236669878603185
-0.3942133967779057
0.1120130400500298
0.5973466804160419
1.070495785459103
1.54429785661754
2.032354692502394
2.545368943508486
3.08799351456709
3.656838795512312
4.240056596087487
4.818659970648746
5.369444424533462
5.869049966250229
6.298369627012737
6.646268142428752
6.911600985159789
7.10293613931657
7.236066705283542
7.330038661750208
7.402725537403328
7.466940888503196
7.527853917938494
7.582190742209966
7.619389551196265
7.624533478254546
7.582527473110795
7.482647506010627
7.322362361751679
7.109374259519702
6.861257326200959
6.602777318949598
6.361624045807243
6.163600324912681
6.028274527790393
5.965886203822319
5.976023320142452
6.048287516701853
6.164828372809843
6.304275419978778
6.446260744885871
6.575494249353456
6.684384653032172
6.773592382834268
6.850538747925325
6.926475406434974
7.012989080436694
7.118770294935185
7.24727452751149
7.395684424355033
7.555364852841929
7.713756290544733
7.85735807390016
7.975137393850646
8.061464151864579
8.117682701881352
8.15179521176959
8.176340301870315
8.205106476373102
8.249567154890425
8.31585205090152
8.402852307334951
8.50183446085317
8.597718825432352
8.671915092201306
8.706289444251418
8.687503954856524
8.610727159104385
8.481728720212619
8.316748182537616
8.140164634577424
7.98058935338582
7.866288779183281
7.82080152976542
7.859424109267938
7.987059793694526
8.197755991605367
8.476025842020128
8.799726702614025
9.143890743299542
9.484591299425778
9.801865847741418
10.08102635316549
10.31227644808869
10.48912037945712
10.60631366141144
10.65804217239784
10.63680967290977
10.53332722038671
10.33754130572732
10.04074332143753
9.638439775972667
9.133359936289496
8.537734906076485
7.873973839629926
7.173220973599224
6.471905746616809
5.806982589854054
5.210827867710198
4.706712177005991
4.305569897033588
4.004572540178413
3.787783856565507
3.628897423222364
3.495715190303591
3.355630450669469
3.181025039066136
2.953384691271494
2.665250567673624
2.319775588849221
1.928309796618566
1.5068041858802
1.071871099403256
0.6372352377195132
0.2111774912397422
-0.2045795287773592
-0.6143043124455212
-1.026057631736494
-1.448296612196311
-1.886125666852885
-2.338259728704706
-2.795587449530264
-3.24168442649765
-3.655032548596093
-4.012337096717912
-4.292237088864125
-4.478745505710309
-4.563839331680405
-4.54874184194504
-4.443622880773776
-4.265708085578374
-4.036153119831682
-3.776439194029281
-3.505274474168022
-3.236831375004993
-2.980638912538995
-2.742873927425178
-2.528446466891155
-2.343208956927401
-2.19571306336371
-2.098081035243535
-2.065716694660602
-2.115757973365941
-2.264390618819731
-2.523434473336394
-2.896938529387187
-3.378697161055254
-3.951433927251689
-4.587918250709495
-5.253749526618272
-5.911212721793477
-6.523515506732674
-7.058754220836626
-7.493043966870062
-7.812370618270612
-8.012884163121104
-8.09957554493499
-8.083596781243468
-7.978852186980379
-7.798721875537599
-7.553688017804965
-7.25024669278348
-6.891047361038847
-6.475925857829718
-6.003407998406732
-5.472267307376383
-4.882762107329842
-4.237248948919039
-3.53997775367966
-2.79603898188086
-2.009685671500106
-1.182552943509992
-0.3124697667345169
0.6065848545918751
1.583265305233841
2.626740947257504
3.74429431091377
4.939256713981778
6.209767481834448
7.548678757066428
8.944750147985376
10.3850546452672
11.85822479721113
13.35782137762914
14.88481706604444
16.44817794322447
18.06297056571305
19.74621093818562
21.51141361908541
23.36314865136416
25.29284458875019
27.27679459708888
29.27699038352619
31.24502131320554
33.12876307348643
34.88093754923374
36.46798286974584
37.87729568974125
39.12108939821844
40.23594444689894
41.27832240532315
42.31730747609888
43.42619338421774
44.67430048965375
46.11999259930567
47.80554497378586
49.75423525255649
51.96965174713457
54.43680848040858
57.12443754637749
59.98791473962238
62.97257317221827
66.0174804252336
69.05995709363638
72.04107802702269
74.91197201213579
77.63997407344276
80.21300899246236
82.64038623576494
84.94842329541459
87.16988233282002
89.32742292592546
91.4134069195185
93.37073980253871
95.0804734334599
96.36067699752817
96.97824970400336
96.6723773298094
95.18602314455848
92.30016025650053
87.86449781255352
81.81855680407794
74.19808394425579
65.12394232576203
54.77432894338872
43.34639611240572
31.01795423362961
17.92073223463057
4.132606913305279
-10.31032078970018
-25.38642866870473
-41.05363816652933
-57.21541461776408
-73.69600051900612
-90.23167843785792
-106.4821258521695
-122.0619578124602
-136.5873321241167
-149.7271366779467
-161.2455831755719
-171.0253100443444
-179.0665924410153
-185.4655200069837
-190.3787407407367
-193.9836274368225
-196.4417062126764
-197.8715066221125
-198.3352270092516
-197.8413247249927
-196.3618863714375
-193.8597979830588
-190.3177657692682
-185.760852523884
-180.2668683129498
-173.9633288360278
-167.0137060120251
-159.5979258462385
-151.8921995629971
-144.0520156722219
-136.2006597127169
-128.4245737655474
-120.7758610466987
-113.2808058010073
-105.9516975415387
-98.79841313962646
-91.83674654536499
-85.09207199756396
-78.59862207270491
-72.39575470898708
-66.52296175985298
-61.01516441360922
-55.89927464326103
-51.19243610752802
-46.9019944182356
-43.026936200058
-39.5601156832706
-36.49024397925444
-33.80274073964134
-31.47923773526067
-29.49633363314128
-27.82455207271205
-26.42825047226883
-25.2668071260927
-24.29705083721653
-23.47661732897227
-22.76770312528931
-22.14055571014115
-21.57597305093841
-21.06608989708527
-20.6129206613403
-20.22465443906325
-19.91047024362403
-19.67524620293242
-19.51557006499905
-19.41794576224344
-19.35941860773674
-19.31031941847877
-19.23850073995346
-19.11425082293972
-18.91499160291634
-18.62886816898793
-18.25642414938552
-17.80983579936381
-17.30976010174868
-16.7806191940705
-16.24568892143852
-15.72332550429721
-15.22511221219032
-14.75602976750287
-14.31626185272535
-13.90398655749555
-13.51840630770188
-13.16228454690951
-12.84335041270978
-12.57409089101446
-12.36973878275002
-12.2447532557401
-12.20867101067902
-12.2625660348879
-12.39722417439969
-12.59357606873767
-12.825278484245
-13.06286958242638
-13.27868797078635
-13.45166719855788
-13.57114878799794
-13.63896801736096
-13.66925659650781
-13.68574628635228
-13.71691229451895
-13.78995210147033
-13.92503286778669
-14.13116770138484
-14.40453232199815
-14.7293469416163
-15.08092807603322
-15.43021822292463
-15.74894534360519
-16.0144879736729
-16.21351352094759
-16.34355833760877
-16.41203920373199
-16.43280787915754
-16.42114443370149
-16.38864642882756
-16.33946562663818
-16.26879991814171
-16.16383206150643
-16.00675662245104
-15.77921850689139
-15.46730016752056
-15.06607278716412
-14.58268489133232
-14.03707002479712
-13.45973169138541
-12.88678853628718
-12.35337545407636
-11.88714675630901
-11.50360080209485
-11.204267359956
-10.97791109982305
-10.80423324069677
-10.65920202433173
-10.52098473009531
-10.37537144075636
-10.21956553447688
-10.063355686306
-9.927119649051408
-9.8369097912022
-9.817836772694294
-9.88762079369503
-10.05210154377935
-10.30374203450922
-10.62321326218426
-10.98345253306054
-11.35523456577649
-11.71313875203575
-12.04073348099056
-12.33383732993154
-12.60093745780746
-12.86036397606046
-13.13467329767487
-13.44365803416261
-13.79799034215115
-14.19532539651034
-14.61983416259555
-15.0451163280196
-15.43971290881695
-15.7740598653267
-16.02755347868189
-16.19434841519349
-16.28659488356487
-16.33411486587226
-16.38013342808905
-16.47365042408243
-16.66010839974731
-16.97266913228195
-17.42624176686299
-18.01549604244362
-18.71697575137227
-19.49458109095441
-20.30720734285792
-21.11707884090089
-21.89721995026114
-22.63656636245593
-23.34149755157585
-24.03318028721409
-24.74111092465728
-25.49439685952728
-26.31309046880114
-27.20183155139294
-28.14722636772111
-29.11930633869432
-30.07653069790619
-30.97322235409321
-31.76796650438531
-32.43132871021296
-32.95128482136024
-33.33503974787298
-33.60655456425344
-33.80015468274862
-33.95178758701407
-34.09026552755688
-34.23073505892744
-34.37177803593383
-34.49649483022806
-34.57706727853964
-34.58171275942081
-34.48256147200374
-34.2628253617079
-33.92169365771145
-33.47569658555249
-32.95592918078372
-32.40158930532529
-31.85147826913585
-31.33582825276665
-30.87062463080551
-30.45566020309541
-30.07647045649575
-29.70946279354042
-29.32900978985892
-28.91496414492268
-28.45897356835047
-27.96811922067549
-27.46477622679268
-26.98232104704152
-26.55745094220616
-26.22109707266499
-25.99052642454972
-25.86481197171012
-25.82468228805102
-25.83652692321514
-25.85946981906663
-25.85393930431641
-25.7899647882342
-25.65349471157661
-25.44931400176089
-25.19962255810115
-24.93815098379667
-24.70090939628626
-24.51591201104794
-24.39475137922245
-24.32828804908717
-24.28734709138639
-24.22795241993438
-24.09973340713493
-23.85567932798833
-23.46127883700472
-22.90123623874374
-22.18235019390285
-21.33174204302291
-20.39053815842154
-19.40435744887447
-18.41309955951131
-17.44286589719146
-16.50206912685402
-15.58235645439961
-14.66365946886906
-13.72188341006532
-12.73739545443653
-11.70243239057252
-10.62578739022149
-9.533601334864702
-8.465750062089477
-7.468270401768008
-6.58345921522067
-5.840244452302543
-5.24751959804119
-4.792166017454138
-4.44198927877805
-4.152522767478609
-3.875963387688819
-3.570305666911655
-3.206857145018551
-2.774671327030826
-2.280968223183868
-1.747314720140347
-1.202272889834441
-0.6722995158323621
-0.1734245455683082
0.2939055068962738
0.745516182322736
1.209862863805941
1.721296820598267
2.311985483207432
3.004293655107463
3.805224456352999
4.704103028299429
5.674101600834295
6.677470352268526
7.67344296342348
8.62689106666909
9.515368191042409
10.33262757246608
11.08789726142995
11.80151396650627
12.49836691258687
13.2008618566152
13.92298368629063
14.66669677947896
15.42144808300364
16.16696414145296
16.87886113876122
17.53582166462638
18.12642921586222
18.65361317060804
19.13532790230004
19.60132738546092
20.08706649099456
20.62637854658435
21.24461550053053
21.95363064156954
22.74954082366317
23.61370701141771
24.51681981888585
25.42533865656242
26.30884381451534
27.14636501196688
27.92983879383824
28.66368796689896
29.36077457967701
30.03604303582327
30.69964667169801
31.35125662320536
31.97682286560663
32.54850621313945
33.02792234017728
33.37223722356829
33.54202038679293
33.50919312877892
33.26315423977361
32.81349604825031
32.18864996199478
31.43095465681794
30.58951933655521
29.71258504702326
28.84092179809899
28.00335788475657
27.21502819965385
26.47844911516985
25.78706272688109
25.13041039236889
24.49966727634721
23.89209176049778
23.31320540045796
22.77621143330653
22.2990082766079
21.89979536816817
21.59250032921471
21.38311146504342
21.26764808830568
21.23211826349696
21.25446933494084
21.3081919212062
21.36687502917992
21.4087255888682
21.4200069915246
21.39659679884766
21.34336501595084
21.27165997604543
21.19564477020445
21.12841007470726
21.0786788913824
21.04861881559686
21.03297085335354
21.01950760731913
20.99069733269258
20.92627291479443
20.80620077149515
20.61342126255769
20.33577220482006
19.96672629513942
19.50491854880819
18.95279361764082
18.31492247700179
17.59651996031321
16.80246435564187
15.93686278710169
15.00309822600151
14.0043121405657
12.94427388326683
11.82849997248852
10.66536262702912
9.466845881614894
8.248645180517238
7.029490971993041
5.829830409768217
4.670182598792955
3.569497403074303
2.543725335282964
1.604686028267951
0.7593117958638155
0.009395354663682173
-0.6480281184192872
-1.219633299295146
-1.7142399176408
-2.14107650153323
-2.508309393982151
-2.822167709863255
-3.086758674563195
-3.304465398746197
-3.476748876611943
-3.605204623001872
-3.692739422904922
-3.744665773467681
-3.769413676021473
-3.778539269235179
-3.785830182094005
-3.805572281682732
-3.850372545018137
-3.929141037762232
-4.045768947810149
-4.198760192410978
-4.381790687172846
-4.585028827812932
-4.79703461362802
-5.00703300612828
-5.207238501798151
-5.394749323702817
-5.572472871142106
-5.748687820963905
-5.93520191990746
-6.144520999467432
-6.38677497902395
-6.667158782945022
-6.984380505949558
-7.330288716693794
-7.690657613328117
-8.047042912942702
-8.379542873459162
-8.670109155820803
-8.905818498044761
-9.081386021475085
-9.200272476588427
-9.274043992855493
-9.320120349058266
-9.35848314049265
-9.408087279784633
-9.483618022915342
-9.593036739657398
-9.736218070994191
-9.90490351000989
-10.08406210714902
-10.25447960518154
-10.39607791222894
-10.49125237405828
-10.52749337473245
-10.49875586843433
-10.40540956062522
-10.25297921098967
-10.05009770893263
-9.806131919962823
-9.52891024437475
-9.222963486367751
-8.888668175507542
-8.522548765719502
-8.118696154604876
-7.670910235413086
-7.174962731491179
-6.630391999624963
-6.041450216142832
-5.417116313325034
-4.770318263927933
-4.116592935943283
-3.472400441538487
-2.853304043368323
-2.272277969707759
-1.738472961487006
-1.25672901147567
-0.8279068782909522
-0.4498264423621335
-0.1184303083590185
0.1711984338697741
0.4241891478493951
0.6456396376470029
0.8406784608146554
1.014725268624358
1.173889192404633
1.325456115339088
1.478341827362826
1.643279447466686
1.832506115187954
2.058895648796035
2.334734068634789
2.670466822451634
3.073702410462341
3.548603282115898
4.095632097330158
4.711547100384514
5.389588724570764
6.119898787018754
6.890248924096233
7.687061568070782
8.496538997349266
9.30563995009501
10.10275951269915
10.87816236133852
11.62430553923186
12.33611850778419
13.01116532525742
13.64950317677373
14.25307130388561
14.82462195629281
15.36644119657079
15.87924011095528
16.36151931038314
16.8094713895207
17.21729388945321
17.57779138895958
17.88325816010468
18.12665975772899
18.30301859918124
18.41073533152228
18.45245598977271
18.43513581037309
18.36919631283558
18.26701325714392
18.14120378853161
18.00315538438831
17.86200513014184
17.72406402176348
17.59265648364122
17.46842448443922
17.35013800254718
17.2359091998991
17.12451518312449
17.01640682437397
16.91401860148024
16.82123394754705
16.74220505081152
16.67997654929562
16.63536029882284
16.60628531461885
16.58762341429399
16.57143944993354
16.54766982805556
16.50522677474068
16.43341065340583
16.32335683043516
16.16913511435839
15.96814713310943
15.72067974254387
15.4287993148955
15.09502879202098
14.72127000527336
14.30822412331698
13.8553225455099
13.36109397969511
12.82393046141252
12.24321967795763
11.62071305650207
10.96184725450497
10.27662176944065
9.579657656038016
8.889276466441789
8.225767792643161
7.60927386938695
7.057766408682877
6.585447434558577
6.201732676256348
5.910891198118634
5.712381060980843
5.601842806695278
5.572569646706573
5.617111993016688
5.728565436036586
5.901129427319667
6.129763731637306
6.409124075437903
6.732228281221973
7.089348340715026
7.467476630910401
7.850525049089897
8.22028431703036
8.558072846675836
8.846879244866411
9.073650142876927
9.231246991682289
9.319557452373196
9.345372935239869
9.32096029224934
9.261655399231996
9.18308579962173
9.098656119872528
9.017751022788191
8.944884633797658
8.879857481146175
8.818848725853707
8.756211250192125
8.686561090343536
8.606636980561513
8.516422316279524
8.419204230434389
8.320567847886023
8.226674376324192
8.142383885587023
8.06976411666344
8.007333446686872
7.950163203823161
7.890802370790476
7.820867091906976
7.733010824572312
7.62287105881606
7.490531517693087
7.341091396177039
7.184119119484371
7.032068756140203
6.898051685205629
6.793533012451939
6.726480882343264
6.70030002532654
6.713666795291567
6.761232938363305
6.835055786632613
6.926494757872509
7.02819614334167
7.135719011502618
7.24838085768483
7.369059842714691
7.502980139024268
7.655831408091037
7.831771618518863
8.031840172026177
8.253119493752399
8.4887660816113
8.728873987154387
8.962016860221745
9.177194890799504
9.3658004426292
9.523154445634473
9.64919623136034
9.748076599865936
9.826712711402578
9.892707479474124
9.95223955549441
10.00849630871239
10.06101169411056
10.10602478887462
10.13778111431072
10.15054568308716
10.14095039799638
10.11017789473599
10.06543805275436
10.02026535072224
9.993392964053257
10.00633181092605
10.0801715101951
10.23233524861762
10.47397205401836
10.80844104296956
11.23108781579173
11.73031089159851
12.28973465387177
12.89110534815961
13.51734038775047
14.1550621333324
14.79599857501982
15.43687468411584
16.07783150865576
16.71986277281216
17.362041102127
17.9992881537427
18.62119177209516
19.21208167758424
19.75236607614057
20.22096705308757
20.59849228500762
20.87056095683282
21.03055878638989
21.08111944649503
21.03386567752661
20.90737957333639
20.72388043814405
20.50544227914153
20.27060920415298
20.03201264889947
19.79527893433598
19.55929695700096
19.31776058916228
19.06171150742846
18.78258519566506
18.47508740926184
18.13918318036243
17.78063295172172
17.40988865567664
17.03966966990459
16.68194055623484
16.34510571689817
16.0320375829369
15.73926722621156
15.45744733327134
15.17303230980091
14.87092954219297
14.53765557454058
14.1643464620673
13.74889938582985
13.29664138145111
12.81927567093253
12.33235971093187
11.85199252391749
11.39153140789142
10.95902025311805
10.55575558505354
10.17617991890553
9.809092183995752
9.439964045742254
9.053941121826051
8.638920088058818
8.187989900092315
7.700606869296465
7.182202872253038
6.642411635095787
6.092506129974496
5.542787463364928
5.000561788938684
4.469118145925639
3.947879805228933
3.433674264738328
2.922856712593316
2.413840309496212
1.909452557143251
1.418493248659531
0.9559933025507501
0.5420006309987067
0.1991411189296866
-0.0504833888577499
-0.188408382838246
-0.2023661653758956
-0.08788780763155098
0.1512690870800588
0.5038806383466019
0.95301527158058
1.478415492415048
2.058978288843485
2.674745610984937
3.30792399411425
3.942766749627895
4.564560141995996
5.158251709156322
5.707325837909338
6.193408242221075
6.596866390124224
6.898430974267457
7.081627157533092
7.135608587221864
7.05785981608798
6.856174949684068
6.549342131417259
6.166128486338557
5.74251930995146
5.317625282870505
4.92901674134421
4.608335916943655
4.377919229588501
4.248942832374834
4.221341210569263
4.285456361993067
4.425082886588544
4.621319531992248
4.856451946036365
5.117027348559428
5.395426784550889
5.689637851945815
6.001462830642573
6.333817471077028
6.687917735175242
7.061051841805761
7.44542170684819
7.828288228295359
8.193392145599152
8.523372313146803
8.802695053766364
9.020455592591933
9.17235000492665
9.261233818549236
9.296045901533013
9.289380932375082
9.254394071263583
9.201843261629715
9.137944888874529
9.063464904480162
8.97418207910221
8.862585769806483
8.720441093338069
8.541691838242942
8.325071039415276
8.075762102366065
7.80557924022416
7.531488297900741
7.272779298352853
7.047591626364394
6.869612650990598
6.745651858812885
6.674558402930169
6.647677489447526
6.650759437316418
6.666975435112456
6.680483833186992
6.679837043478415
6.660451104731617
6.625475536396182
6.58478071972273
6.552323557824434
6.542597050958609
6.567029708512468
6.631106041353681
6.732756884513681
6.862299387797029
7.003926246916589
7.138482058578131
7.247038570097659
7.314588531905412
7.333050810696006
7.302827307808249
7.232482128403952
7.136654843831261
7.032811254103013
6.937656515427222
6.863984259371693
6.818541082323962
6.801251094121767
6.805908029020081
6.822210319049646
6.838781772619511
6.846582901743904
6.841919184397944
6.828219650556592
6.816026529933337
6.821167491422194
6.86161810811773
6.953844466734495
7.109409454710881
7.33246574382165
7.618556878313992
7.954934220712627
8.322368872770815
8.698189025381028
9.059999261112793
9.389275345514793
9.673911679745405
9.909008410244333
10.09573456893069
10.23872440612969
10.34282836874675
10.41006527553599
10.43745366690555
10.41617796520387
10.33230603690869
10.16901800089073
9.910037326774829
9.543678164649595
9.066665784247308
8.486767345772506
7.823461519888154
7.106405654868563
6.372078911671071
5.659368594370209
5.004938938530284
4.439113250844739
3.982839598334677
3.646125686910947
3.428113617021927
3.318717791886893
3.301468716831852
3.356924092692414
3.465839165381457
3.611380624810434
3.780044065383667
3.961392549338634
4.147018048377503
4.329173222179714
4.499446438978004
4.647770776387078
4.761986036799856
4.828089226113917
4.83119768080061
4.757095921326903
4.594051070137492
4.334443851981359
3.975795189849205
3.520997245607295
2.977839569166035
2.358076222950527
1.676270668118728
0.94858322453326
0.1916238904483753
-0.5785150182713075
-1.346942094573041
-2.100294998842766
-2.82671483010034
-3.515578971378557
-4.157197154089205
-4.742668767328844
-5.263991733694464
-5.714392725587762
-6.088786178768989
-6.384258236738293
-6.600473467603909
-6.739901420860841
-6.807763523935408
-6.811621536464996
-6.760584094915321
-6.664210100972398
-6.53131144380326
-6.368926920664217
-6.181689217970129
-5.971665997568367
-5.738624514694576
-5.48060738883409
-5.194695456288118
-4.877833526854518
-4.527596137097252
-4.142777745666142
-3.723707732975647
-3.272228819034495
-2.791366659692867
-2.284852761781562
-1.756758527359014
-1.211454867192967
-0.6539369955628461
-0.09037161673685673
0.4713611649892517
1.021346765945372
1.547694190692273
2.037059113155076
2.47563803834285
2.850562101751682
3.151543683501782
3.372532158061985
3.513016822403711
3.578560723908618
3.58027559777361
3.533249540541551
3.454249533085485
3.359178965426931
3.26075940229152
3.16680532336385
3.079336258953101
2.99464698952957
2.904335605685561
2.79715691877803
2.661403989971544
2.487342512963281
2.269131686713376
2.005781052496977
1.701007889975141
1.362202352088017
0.9989042294681325
0.6212180388306954
0.2385163247736523
-0.1413284391932921
-0.5120567093268604
-0.8684654194249547
-1.205292451677313
-1.515805420991587
-1.79051595692447
-2.016506826922753
-2.177731137587087
-2.256344122900289
-2.234820580034997
-2.098430518363959
-1.837596119207609
-1.449690009295945
-0.9399448086853096
-0.3213077537433449
0.3867541212404847
1.160330907206267
1.973685154126262
2.801884742841833
3.622863183559542
4.418474340197103
5.174460917589556
5.879609811231393
6.524550089280438
7.100647815875191
7.599349361211665
8.012186921886281
8.331514011732349
8.551897094447433
8.671949834855969
8.69624428031992
8.636788644761456
8.51352224172805
8.353458560737442
8.188487251422949
8.052232601837408
7.976567901730761
7.988375031034891
8.107012303822362
8.342795412553993
8.696635973831205
9.160824962523959
9.720790556986623
10.35749034394228
11.04993106269559
11.77723062447148
12.51976504259005
13.25928422069805
13.97825675484411
14.65890082419614
15.28233466315926
15.82816075589901
16.2746934412133
16.59995055169727
16.78340998796838
16.80836851239094
16.66455159801261
16.35044496137051
15.87473019063163
15.25632750731193
14.52290970378922
13.70818440313787
12.84849929262865
11.97932884865555
11.13208474652362
10.33159980584715
9.594578081294246
8.929218759163609
8.336073611644785
7.809987795757796
7.342722097718988
6.925637745032787
6.551787143523753
6.216982844373598
5.919796927444486
5.660739232080569
5.440965546578798
5.260849898215
5.118716110891699
5.00998259873157
4.926916457714896
4.859109868433366
4.7946632491267
4.721863464225077
4.630928835310234
4.515300330877897
4.3721076214193
4.201755051982079
4.006843964995562
3.790754587169648
3.556201564360757
3.304038196840653
3.032543928830437
2.737379981014409
2.412322028565815
2.050746101426367
1.647635520990753
1.201649039797925
0.7166875797523227
0.2025285631468985
-0.325606009761077
-0.8484082540677108
-1.344490156211049
-1.792717371403111
-2.174547149181987
-2.476052176238678
-2.689338684472095
-2.81313721503378
-2.852476155729772
-2.81753187871256
-2.721931740457433
-2.580886705600837
-2.40949976758073
-2.221469420320668
-2.028270456448347
-1.838802051795282
-1.659444172020998
-1.494436373995251
-1.34646989331415
-1.217354236047057
-1.108595099083452
-1.021738291756106
-0.9584178208020437
-0.9201616804687394
-0.9080853367549857
-0.9226024192212879
-0.9632298412137446
-1.028508762677668
-1.116030012881145
-1.222543439715238
-1.344132275910033
-1.476427065998485
-1.614807239786246
-1.754507910551617
-1.890559348521512
-2.017566540263354
-2.129449266559368
-2.219324815715789
-2.279680374652369
-2.302884196460907
-2.281983419612685
-2.211661565261807
-2.089187440639988
-1.91518207318111
-1.694049939220557
-1.433944825092233
-1.146176209357054
-0.8440511047112332
-0.541306536310131
-0.2504526866479035
0.01859740759054271
0.2593345321762628
0.4687986040320913
0.6471155965748867
0.7965634616949516
0.9203514359294113
1.021333045146274
1.100897949343683
1.15829042321308
1.190558978753251
1.193215446428091
1.1614680780881
1.091674031892105
0.9825679901724413
0.8359300856434879
0.6565767214113442
0.4517511635983537
0.230090536418375
0.0003784928353233186
-0.2296960376520618
-0.4545441617502258
-0.6712144206416195
-0.8792670634085304
-1.079914853288775
-1.274586899858554
-1.463316120135612
-1.643458659142673
-1.809141501573323
-1.951579146031591
-2.06015187958393
-2.123982959556417
-2.133691930022418
-2.083005336037388
-1.969935378245628
-1.797269964539359
-1.572183149692747
-1.30493311750914
-1.006876059948396
-0.6882856559645625
-0.3565608951343959
-0.01525084584008882
0.335974447266825
0.7005474046129995
1.083712628345948
1.491058208618615
1.927177136413455
2.394712011956881
2.893984766555229
3.423349848318384
3.980271335803887
4.562883408149118
5.171546740462118
5.809847465857576
6.484692381880381
7.205508021477843
7.98283335168435
8.826707941807637
9.745244650009663
10.74370389254416
11.8242836959744
12.98671579531058
14.22960160526221
15.55219627075408
16.95606574496812
18.44585431005281
20.02853432272336
21.71101590756931
23.49661591972935
25.38128423962819
27.35055193873911
29.37802125824452
31.42598543078253
33.44845958261773
35.39648495139163
37.22504366256177
38.90039691626473
40.40633429043378
41.74789783798446
42.951705003997
44.06288866131209
45.13950304021287
46.24562296343543
47.44426836097171
48.79102377306361
50.32901346407184
52.0856747166304
54.07144098010737
56.280091843054
58.69034461113469
61.26832428923578
63.97072719201953
66.74863029897944
69.55196033472284
72.33459016316846
75.05972943963785
77.70472349490711
80.26390430807581
82.74803991821244
85.17912862404843
87.57974065161005
89.95720775680849
92.28496590221654
94.4855413455099
96.42053282071419
97.89161655329684
98.6538055507656
98.4393864015387
96.98885387912367
94.08368856957908
89.5750443520623
83.40260404620292
75.59898883189042
66.27723676052393
55.60258294060338
43.75494404805989
30.89287545863624
17.13018968322788
2.532020688350234
-12.86955780220464
-29.04569164252194
-45.9347821858703
-63.40925334327773
-81.25338168922488
-99.1587510391544
-116.740851822471
-133.5760719024759
-149.2529084129172
-163.4259245263713
-175.8586263502268
-186.4442725163002
-195.2007248350891
-202.2431816768637
-207.743587508056
-211.8866846257099
-214.8313305736823
-216.6835801974038
-217.4858134854563
-217.2235064451896
-215.8476649029571
-213.3068987489366
-209.5801154298412
-204.700623925655
-198.7655514193955
-191.9294642283284
-184.3857024320529
-176.3415276318621
-167.9933124924048
-159.5064640386582
-151.0029262885267
-142.5576746643227
-134.204264011021
-125.9477504665163
-117.7814843611965
-109.703296243059
-101.7271401834864
-93.88807710309005
-86.2406452820716
-78.8523318135666
-71.79465231529102
-65.13423887186107
-58.92562200799267
-53.20660531992516
-47.99658066841259
-43.29766496481497
-39.09795566066883
-35.37566978021293
-32.10283264650611
-29.24765580679027
-26.77549150227939
-24.64882862857056
-22.8270184124993
-21.26637725912752
-19.92111076560759
-18.74518888120306
-17.69497995900832
-16.73221805393129
-15.82673028724441
-14.95827618993517
-14.11693360907065
-13.3017949996124
-12.51823310373272
-11.77441121111635
-11.07784833455443
-10.43271060755148
-9.838234771788278
-9.288411057850833
-8.772800471887882
-8.278171356271297
-7.790540536874194
-7.297170332458387
-6.78808019125749
-6.25673325346599
-5.699813613504629
-5.116350557118864
-4.506682871294955
-3.871750790292753
-3.212993422033476
-2.532863194390598
-1.835746962965396
-1.128932162143716
-0.4232069342777481
0.2672379530952529
0.9257738237344897
1.535145599071983
2.079897687892191
2.548951855400479
2.937718593088827
3.249149863987774
3.493373819758591
3.685906660736389
3.844770465037247
3.987064510791503
4.125640526560538
4.266528764352962
4.40763425818036
4.538990205016933
4.644567350259604
4.705320282873355
4.702850812778459
4.622892258542645
4.457852699936671
4.207899202689052
3.880439938050709
3.488234120895678
3.046617254943653
2.570448691205423
2.071396860085849
1.556096202687897
1.025563902008418
0.4760610762964322
-0.09870383348660344
-0.7044771553808751
-1.343199476159028
-2.010415996372081
-2.694061069613251
-3.374987359026862
-4.029189128128446
-4.631303615608532
-5.158735111421002
-5.595635903092903
-5.935983177391092
-6.185087765460314
-6.359062873110149
-6.482124585374791
-6.582097912287578
-6.685027371156588
-6.810124304997259
-6.966251236046691
-7.150726315203294
-7.350615524119509
-7.546125014127029
-7.715332364292847
-7.83929015493994
-7.906471066043724
-7.915590929216294
-7.876064292172502
-7.8057801975395
-7.726540829622828
-7.658215483018971
-7.613134189145838
-7.592227646664386
-7.583888167481964
-7.565750150839349
-7.508913240509514
-7.383694086627345
-7.165757376381255
-6.841419019966982
-6.411034873600336
-5.88968184087204
-5.304832967624029
-4.691430516148738
-4.085520570818324
-3.518118558570512
-3.010928886315165
-2.574909016655626
-2.211774853378748
-1.917809154246953
-1.68892390238808
-1.525773233507162
-1.437730969053552
-1.444704831768965
-1.576077932117906
-1.866616825191473
-2.349966629576082
-3.051162709315742
-3.980061539596299
-5.127437956273965
-6.464741490204196
-7.947529957655401
-9.521815386465587
-11.1320988849019
-12.72965901523141
-14.27961748299823
-15.76541978239368
-17.18968514963665
-18.57100606588124
-19.93721281873942
-21.31659365488527
-22.72914802487276
-24.17987365697114
-25.65543629636943
-27.12470487286834
-28.54286398503199
-29.8582187718709
-31.02037740276022
-31.98827474847557
-32.73651055261406
-33.25872012978351
-33.56724602877556
-33.68925419644179
-33.66038892971304
-33.51765928863101
-33.29324808334829
-33.010460771486
-32.68239912051514
-32.31333940793225
-31.90224103217257
-31.44737069560345
-30.95082186771181
-30.42175564169462
-29.87743153170861
-29.34157280212706
-28.8403511107313
-28.3970579716767
-28.0269558182918
-27.73366312190661
-27.50789913936698
-27.32881221543311
-27.16758855734846
-26.9925839995599
-26.77490193231279
-26.49326124202639
-26.13714031272569
-25.70748427428864
-25.21477637775551
-24.67501581025081
-24.10484570700224
-23.51732815358148
-22.91952669640681
-22.31239401293671
-21.6928308752404
-21.05730640748514
-20.4060718658478
-19.74681375439477
-19.09667468602064
-18.48187789027214
-17.93464026156654
-17.48768879969103
-17.16747755857834
-16.98780999538893
-16.94559653727405
-17.01985950507323
-17.17419918105777
-17.36216967935465
-17.53450605034235
-17.64682303968877
-17.66628913477625
-17.57595232101908
-17.37581407995329
-17.08033084837811
-16.7127923128203
-16.29791645060896
-15.85463443827179
-15.39099141395233
-14.90234991068031
-14.37308297336217
-13.78113378199759
-13.10431673565401
-12.32694398431025
-11.4452780046854
-10.47051642782575
-9.428477852023457
-8.355800881384928
-7.293304223588225
-6.278069791967343
-5.336376463436148
-4.479408968784349
-3.702747241635225
-2.989511169014056
-2.316180559728041
-1.659656105574916
-1.003968075999681
-0.3451322636879223
0.3069849398647836
0.9303668163503751
1.495986665897665
1.975406730523885
2.348984261448695
2.612406419063631
2.779683351575356
2.881833514128363
2.961719985249264
3.066347984869305
3.238325861509602
3.508261266385893
3.889659157805328
4.377397484444383
4.950170143029493
5.576493721916939
6.222983017816066
6.862798980336337
7.481935679521595
8.081655122884737
8.676632152669855
9.289595794919183
9.943999872176411
10.65651598027955
11.43109127833137
12.25599663562828
13.10468367203003
13.94046983739437
14.72420936290485
15.4232583758114
16.01943586377892
16.51375052906512
16.9265871246658
17.29342289260888
17.65731379299993
18.05998548144278
18.53345887829172
19.09393897362688
19.73924886005665
20.45038229710572
21.19688271199983
21.94488671823887
22.66591153706781
23.34406340246813
23.97966117349696
24.58835895629494
25.19622759286489
25.83228498670649
26.5203794875538
27.27226563719839
28.08338234781099
28.93230873232033
29.78412937477214
30.59708956051333
31.33111974169313
31.95621298159007
32.45849535042937
32.84238777658614
33.12842153663009
33.34751681974019
33.53334101892997
33.71458564722214
33.90880422914541
34.11903269310417
34.33384897522328
34.53084705314343
34.6827706173834
34.7648827799886
34.76169945924786
34.67123269714676
34.50555908532031
34.28766617187443
34.04560929021935
33.80559321164326
33.58562815446804
33.39110018446237
33.21312702540693
33.03002212393362
32.81159383232859
32.52540621014577
32.14360729275275
31.6486477286888
31.03638801259742
30.31582986592032
29.50576511470424
28.62950827217167
27.70921021406105
26.7610847129394
25.79247811744108
24.80126163607536
23.77757966477144
22.70755347985857
21.5781304062918
20.38193273892168
19.12082693295378
17.80718598896902
16.46251471246232
15.1139904322294
13.79007339140746
12.51638467618587
11.31267662499712
10.19126672252454
9.156969763603918
8.208345396975835
7.339902444615934
6.544716127484904
5.816750180199757
5.152153886409546
4.549062461230957
4.005980839783564
3.519449730076822
3.082006848620391
2.681271203050958
2.300475256245698
1.920291407804045
1.521523586539198
1.088134912282944
0.6100704735251791
0.08534845192629822
-0.4790717364978598
-1.068011345793667
-1.660445662018548
-2.233104665253055
-2.764406162203671
-3.237679922130384
-3.642954980374604
-3.977141717490293
-4.242899167186254
-4.446686783387346
-4.596525520549964
-4.699939784227255
-4.762476209362297
-4.787109535704858
-4.7747161237223
-4.725563074012026
-4.641420147794477
-4.52758689481433
-4.394070522180367
-4.255452910813482
-4.129466280172271
-4.034675511395824
-3.987826878911596
-4.001411776847615
-4.081873702468595
-4.228717758483274
-4.434630464309317
-4.686601387264363
-4.967902020054416
-5.260572387017109
-5.547861813777237
-5.816043453776285
-6.055259569566199
-6.259416560583285
-6.425417970821981
-6.552119919209236
-6.639363841105061
-6.687345532884041
-6.696458496992285
-6.667633636854537
-6.603091420643093
-6.507310888218864
-6.387903521976601
-6.256016308020065
-6.125966973033777
-6.014046727012161
-5.936690171952242
-5.908374109395692
-5.939644156314158
-6.035625074868688
-6.195274081843182
-6.411499163942914
-6.672108704650248
-6.961405485299517
-7.262108024926166
-7.557207721713334
-7.831392821184186
-8.071815379617286
-8.268204799884964
-8.412530308116875
-8.498498757346566
-8.521152103860786
-8.47675024056922
-8.3630149459436
-8.179685331461929
-7.929226145575846
-7.617469446426355
-7.253964658926648
-6.851848035801241
-6.427117171224331
-5.997323361662887
-5.579851750223459
-5.190074307895519
-4.839691998362651
-4.535549651439398
-4.279127254430412
-4.066783481581195
-3.890679778840526
-3.740198102483445
-3.603608036167341
-3.469727337440428
-3.329331720959329
-3.176105508494846
-3.007008778903368
-2.822063940618402
-2.623679600816391
-2.415689997731242
-2.20230217325614
-1.98712563211432
-1.772414183172452
-1.558594688713354
-1.344115736967936
-1.125618830036682
-0.8983922887226518
-0.6570009797832876
-0.3959195754796447
-0.109989122926297
0.2054115071729533
0.5544795952947748
0.9412963065131945
1.370180382010301
1.845932171186534
2.373857014916412
2.959520556188961
3.60822919009554
4.324247348839101
5.109796288022257
5.963955235778652
6.881686329582938
7.853260475193427
8.864319499079764
9.89668922403647
10.92990384530727
11.94324734706582
12.91800773946917
13.83960605023098
14.69927208345147
15.4949536402225
16.23119650627212
16.91788027927203
17.56794621249393
18.19453419626214
18.80813576662878
19.41438127678507
20.01292085849509
20.59759538315121
21.15779967597937
21.68071023932117
22.15394413700292
22.5681845130761
22.91927333399873
23.20926552226073
23.44607457623531
23.64166843786189
23.80920069181316
23.95979376645675
24.09978175342137
24.22906825014937
24.34094604659083
24.42336533812178
24.46134614455296
24.44007985028668
24.34819611433879
24.18059755403377
23.94022315282364
23.6382220067767
23.29236984090001
22.92405318035679
22.55456422792408
22.20160120718991
21.8767280734757
21.58422647193008
21.32141249796562
21.08020701437148
20.84958117970514
20.61838789537745
20.37798059411804
20.12397420562845
19.85663854217787
19.57977534343632
19.29841543270345
19.01606632240037
18.73235571235322
18.44173943528754
18.13360693938568
17.79376782393674
17.40703128775633
16.96042177992669
16.44646561153614
15.86590114294653
15.22916515723682
14.55618694047183
13.8744020938236
13.21537046051788
12.610743912436
12.08841932509671
11.66953773444277
11.36669540785986
11.1834554419614
11.11505156087834
11.15004956618944
11.2726277462019
11.46503135779742
11.70969445010816
11.99058788113297
12.29358452254471
12.60596557500151
12.91547250387539
13.20940979681129
13.47421519852551
13.69570967613686
13.86000385582681
13.95485240297354
13.97116135221144
13.9043409542049
13.75521054901162
13.53020826085505
13.24077276257345
12.90194440295888
12.53042353023763
12.14245265625226
11.75191763689325
11.3690026390481
10.99960513900491
10.64553758818326
10.30536490268748
9.975622192746107
9.652138032108683
9.331215700514322
9.010476086761544
8.68924401180223
8.368455716103078
8.0501581865765
7.736746261898796
7.430134440712109
7.131076955527806
6.838813036475492
6.551121594687361
6.264759012468855
5.976172613979736
5.682343147661386
5.381604911088753
5.074317661306684
4.76329844561072
4.453931720074292
4.153873226493776
3.872301082986126
3.618772655402037
3.401872470830955
3.227908334471408
3.099898138825115
3.017019281835258
2.974608981584857
2.964723549390536
2.977187268938876
3.000985301442307
3.025780941165615
3.043282522351475
3.048190703076591
3.038553947429241
3.015523314428127
2.982652088980404
2.944964962139848
2.908013869074231
2.877076649508891
2.856577798733159
2.849742266267843
2.858451691581992
2.883258063884189
2.923495506382044
2.977404440474285
3.042182101604336
3.113933610735151
3.187587108078701
3.256893906104732
3.314633961625503
3.353099102280544
3.364851341763048
3.343669432409239
3.285525813708486
3.189406589976665
3.057810251058448
2.896811393409078
2.715631183720585
2.525735474719027
2.339593064520113
2.169319239970575
2.025450026320861
1.916048935531071
1.846278642773214
1.818488034255632
1.832763500260499
1.887785285934346
1.981758160811493
2.11318033061538
2.281259671615981
2.485864168258104
2.727019049109603
3.004119930434306
3.31513229362122
3.656031173470296
4.02063813187327
4.400906192938538
4.787614420858364
5.171355127605203
5.543630003247917
5.897839432014026
6.229965412511248
6.538794531958493
6.82559625180504
7.093295076924094
7.345342117337985
7.584603469456218
7.812564271168847
8.029030112877566
8.232365768638559
8.420188480804999
8.590343807550553
8.741940029276256
8.876206121877923
8.996966595543848
9.110575273307155
9.225221024916959
9.349654580981394
9.491578124784914
9.656076453839665
9.844459626540864
10.05376129755963
10.27697445621424
10.50395867679896
10.72284254480402
10.92167707375758
11.09006790952093
11.22051855254225
11.30924004471186
11.35623975780797
11.36464688257186
11.33945584111425
11.28604764058363
11.20887591962679
11.11059699153817
10.99176900792396
10.85111676828681
10.68628156935826
10.49492921548453
10.27604352079351
10.03117924647583
9.765397281028672
9.487598726565302
9.210084892057644
8.947396389038968
8.714702733351077
8.5261020745891
8.393145414357521
8.323793528873384
8.321909077262253
8.387302530044304
8.516282996180957
8.702603945364077
8.938629017900956
9.21646453813232
9.528747318927538
9.868829200500523
10.23029995464092
10.60603763101343
10.98712950766007
11.36201722088065
11.7161283144833
12.03212975663778
12.29082202473045
12.47259827011172
12.55931804370866
12.53637537528501
12.39465358757375
12.13197174771563
11.75363610486591
11.27189263211148
10.70437245960531
10.07187410074674
9.395931323254823
8.696582611815444
7.990653682278165
7.290743497042214
6.604996928114288
5.937668480669702
5.290410498255053
4.664096025797379
4.06079975450615
3.485422339492762
2.946493555245551
2.455932692217013
2.027842772428386
1.676631057613002
1.414843009546552
1.251097296949389
1.188447792158928
1.223412482047297
1.345838625248914
1.539702690089511
1.784794677833934
2.058987987655844
2.340575021046977
2.610125863249535
2.851533100244438
3.052203838597441
3.202589522928005
3.295343682707782
3.32439463206798
3.284163827877817
3.169100001937588
2.973670937939139
2.69293410193771
2.323702255168688
1.866089637652511
1.324986833625543
0.7109528815394537
0.0401860576660317
-0.666476996648263
-1.385333315347594
-2.092017343717009
-2.763771498714683
-3.381471593067298
-3.931160510099196
-4.404865919384076
-4.800492191931414
-5.120700147972408
-5.370968641080895
-5.557331594336537
-5.68439582625252
-5.754109788464225
-5.765488553737784
-5.715241276494441
-5.599054394870533
-5.413187250745291
-5.15604960277474
-4.829495158418104
-4.43959198584727
-3.996631171782258
-3.514239348819708
-3.007734242865686
-2.492162890965448
-1.980570903820745
-1.482911476973416
-1.005743505411866
-0.5526340976638153
-0.125034545537613
0.2766451211885187
0.651992791051989
0.9997448390235153
1.317282975456225
1.600657199737894
1.845251239122644
2.046982065288032
2.203668000621902
2.316114022299244
2.388593344003232
2.428625059025423
2.44613139367449
2.452167263313847
2.457460175454182
2.47099904922369
2.498897245965281
2.543753071125884
2.604708246874587
2.678281149714778
2.759814512435038
2.845157334718713
2.932150088659347
3.021605749432111
3.117657178041067
3.227477034053925
3.36045619697523
3.526974908717152
3.73693581081365
3.998263517488905
4.315619909140063
4.689602350796766
5.116602697481731
5.589295702619608
6.097529760538065
6.629353086324069
7.172005715112872
7.712818648095395
8.24001422876371
8.743403670839973
9.214954883293466
9.649176537480656
10.04325943681399
10.39696357890139
10.71232217667728
10.99326480460891
11.24518903350233
11.47442368713524
11.68754629718704
11.8906189497324
12.08847946133645
12.2842238823651
12.47897141330913
12.67194333982075
12.86082400507266
13.04232050736366
13.21282525214003
13.36910621388059
13.50894338238009
13.631570314723
13.73775705207176
13.8294754810139
13.90926152594743
13.9794974576257
14.04183605347933
14.0969207547373
14.14446986191968
14.18370872940857
14.21406838161544
14.2360422939229
14.25209056030481
14.26743868527819
14.29052541241044
14.33282811852346
14.40794188825379
14.53003641121658
14.71199679269309
14.96359875779202
15.2900172825965
15.69087815136412
16.15996272559342
16.68558488989779
17.25159338643736
17.83889741343534
18.42731139154705
18.99736562330997
19.53166258391774
20.01549696568303
20.43674096333445
20.78523924595099
21.05204427909195
21.2287751517297
21.3072880221409
21.2797612770392
21.13923317660682
20.88058077855208
20.50187783373313
20.00596021833313
19.40184586679526
18.70552604345088
17.9397281957831
17.13254649566965
16.31516783520814
15.51911652554986
14.77346662834541
14.10239921667212
13.52338871527328
13.04622232770634
12.67299261319039
12.39911919468866
12.21528132338317
12.10987162276644
12.07135326694401
12.08990482257744
12.15800225933524
12.26995464806457
12.42068602998236
12.60417175336102
12.81193423020407
13.03193995282228
13.24816269917868
13.44101487561874
13.58876782267329
13.66989382722842
13.66594737042688
13.56431410218872
13.36011203486624
13.05678988576518
12.6653692372382
12.20260230006643
11.68847182026787
11.14347750237327
10.58610234966282
10.03079284760464
9.486754131375607
8.957817770933241
8.443479785277642
7.940886467425502
7.447204072369135
6.961673906678353
6.486815360694659
6.028564720986477
5.595437600624482
5.196995940753212
4.841992043329366
4.536564652142115
4.282810186380386
4.078008129195336
3.914744017102085
3.782050795948893
3.667423847412369
3.559269844770627
3.449209564365253
3.333728775747678
3.214866747868653
3.09983922094658
2.999669497365653
2.927044032108885
2.893717402786554
2.907875652324422
2.971934852151986
3.081262728246744
3.224183070625211
3.383336718760958
3.538142483915715
3.66787414034291
3.75479328576075
3.786811150944574
3.759252471557608
3.675440993969307
3.546001473948615
3.386960342068545
3.216922217024154
3.053801704898377
2.911755692016674
2.798983841179398
2.716870798739575
2.660600416518448
2.621029009905135
2.587356447810417
2.550005141815799
2.50311035882036
2.446127242302641
2.384240176393927
2.327487789455161
2.288766677779734
2.281124997099405
2.314957925063354
2.395783955486985
2.523144636683794
2.690867645255623
2.888584351693533
3.104104130616296
3.326078288524187
3.546362390928962
3.761590640461675
3.973662951187662
4.189070325144788
4.417216107791219
4.66810660887256
4.949951030711828
5.267262291748223
5.619927882254788
6.00344935111073
6.410238397921772
6.831608269416885
7.259959000259503
7.690636808339604
8.123046149475709
8.560781386205493
9.010773114196368
9.481652091359404
9.981685323641754
10.51672218625709
11.08858155589213
11.69419162031069
12.32559545100995
12.97074323847047
13.61486686552115
14.24217127200197
14.83755534527741
15.38808894158504
15.88403324974916
16.3192963999885
16.69133818340547
17.00064865358953
17.25000817767323
17.44376536782394
17.58731580286554
17.68684857850263
17.74932075942295
17.78256754596558
17.79544108633483
17.79786512446577
17.80069858908682
17.81533229767532
17.8529938292333
17.92378391551146
18.03550506974298
18.19239404958456
18.39395039431692
18.63411375123207
18.90100994278247
19.17737017233032
19.44160419922294
19.66941025102157
19.83572880998684
19.91681173472338
19.89219551543474
19.7464105811386
19.47028942124953
19.06175118136505
18.52597870106635
17.87500462818723
17.12685395299654
16.30445621989841
15.43449811486465
14.54628700610898
13.67060141202302
12.83844438897201
12.07960737322796
11.42100164790224
10.88480950376197
10.48662238117395
10.23383864324761
10.12465282887822
10.14793665607377
10.28415822249457
10.50724562355735
10.78708443517876
11.09223439738957
11.39245726554927
11.66072172678444
11.87446598877854
12.01603601092947
12.07235761801078
12.03403282070627
11.89416823335015
11.64732884727631
11.2890211816039
10.81598746211792
10.22732822885526
9.526170523829498
8.721413041792072
7.829063666338963
6.872788786944594
5.883451162423623
4.897579726884064
3.954872328117735
3.094993794238905
2.354109491511777
1.761750258009628
1.338640222249714
1.095933753717524
1.035911779002587
1.153762167846306
1.439832539846026
1.881760964666324
2.466077183734978
3.179116674204792
4.007310882816979
4.937049502017298
5.954367071432666
7.044733171614067
8.193218129037465
9.385207328904546
10.60761388592349
11.85025694424018
13.10689842289488
14.37549682520804
15.65749449148579
16.95624890006789
18.27495573961369
19.61456542723943
20.97223813917747
22.34080102257417
23.70947891453598
25.0658898518238
26.39898693644987
27.70238802741514
28.97744101645844
30.2354492039609
31.49869700695555
32.80015608597512
34.18188825521263
35.69220059637769
37.3816644866075
39.29822343272426
41.48170734451487
43.95810753756933
46.73405835617154
49.79225084803173
53.08888473741683
56.55439555096411
60.09828015779797
63.61798719448543
67.01089817880234
70.18762519742839
73.08425532311993
75.67091302194117
77.95419997333563
79.97162139427827
81.77706337443514
83.41819365122382
84.90949737757404
86.20748261378398
87.19547817460726
87.68336566883667
87.4235456770829
86.1404719274843
83.56837477258105
79.49031668239934
73.77131256317769
66.37894948812905
57.38662476826451
46.95724192254502
35.30950810383445
22.67457006193234
9.255123819081694
-4.800873676039719
-19.40486138691615
-34.51102545252711
-50.08455513797442
-66.0638572326194
-82.3262596576872
-98.66576569601659
-114.7892293480257
-130.3339534643859
-144.9052417024605
-158.1270844357342
-169.6942796719357
-179.4125537720865
-187.216485753708
-193.1620887515382
-197.3983013699119
-200.1262742727851
-201.5562972450409
-201.8706892381784
-201.1986944719409
-199.607138838538
-197.1079538884196
-193.6802687742649
-189.3010651663793
-183.9757938057401
-177.7603824560761
-170.7690596475015
-163.1670765050079
-155.1517360485624
-146.9276320366959
-138.6821964316154
-130.5662221167482
-122.6822023311718
-115.0818085551375
-107.7723793545541
-100.7305665439858
-93.91960502586723
-87.3058386818927
-80.8706825146538
-74.61590811215042
-68.56221837164759
-62.74278868419555
-57.19439026849121
-51.94873793702273
-47.0260156291848
-42.43162720203521
-38.15645209423366
-34.18021609983435
-30.47691967569538
-27.0207708836673
-23.79102983048705
-20.77464833635472
-17.96634180902198
-15.36643770568315
-12.97734311954248
-10.79972872434324
-8.829492524986513
-7.056247131980705
-5.463609068369305
-4.031119096413606
-2.737255983760071
-1.56276620461268
-0.493494446558102
0.4779177682688047
1.351788739412455
2.122610872371885
2.781442409884749
3.31895997597104
3.72850502847652
4.008471784841312
4.163581731119208
4.204880032483335
4.148567572458382
4.014002416273669
3.821326878470977
3.589158338692641
3.332666435458336
3.062258251512175
2.783036119181069
2.495094023551518
2.194519656711141
1.874749857849848
1.527849235182601
1.145414501485326
0.719044932871169
0.2405122237141046
-0.2981480219795287
-0.9044261585458541
-1.584948361984374
-2.344985069407266
-3.187931753288634
-4.114719680833336
-5.123090236334061
-6.20683655902855
-7.355346413724039
-8.553835669275708
-9.784452255567015
-11.0281091555785
-12.26668242617591
-13.48514236095534
-14.67322748156024
-15.82639135196066
-16.94588157586161
-18.03785604560454
-19.11146133259941
-20.17597478472151
-21.23748965097241
-22.29598658098937
-23.34368931536436
-24.36526067183986
-25.33986685989658
-26.24468655295903
-27.05914623463651
-27.76901033439691
-28.36947794497545
-28.86663642147352
-29.27690406726167
-29.62441865499568
-29.93674603619874
-30.23976577135897
-30.55293203357682
-30.88606558578624
-31.23838317736083
-31.59986042963358
-31.95450719660298
-32.28476901144376
-32.57604793636352
-32.82032874386628
-33.0181215012771
-33.17828790874076
-33.31573658226712
-33.44746346703488
-33.58791447124759
-33.74494658300912
-33.91754536107895
-34.09592669860517
-34.26397729074935
-34.40344461847887
-34.49893605389339
-34.54260635707423
-34.53745746943689
-34.49846231861152
-34.45115433119143
-34.42781381755282
-34.46191453602167
-34.58198476179301
-34.80628792248079
-35.13955711833786
-35.57245351136544
-36.08372364733937
-36.64446136436349
-37.22349283309067
-37.79269340421713
-38.3310895730547
-38.82691842515315
-39.27728417402258
-39.68555689943437
-40.05717977076369
-40.39501621704046
-40.69558805392545
-40.9473451799394
-41.13149348063467
-41.22517408631411
-41.20622410737013
-41.05842374606647
-40.7760210858563
-40.36647469684243
-39.85076294461825
-39.26112368181782
-38.63657921701932
-38.01705825667371
-37.43731335426945
-36.92199254330664
-36.48298866292595
-36.11958300910649
-35.82118333999538
-35.57189167187657
-35.35578800382635
-35.16168545538
-34.98627831568506
-34.83505069807251
-34.72084190894051
-34.66041980411
-34.66980365317266
-34.75940819348273
-34.93021726028626
-35.17197077898344
-35.463783244748
-35.77696590152756
-36.07935048450134
-36.34014738770758
-36.53429015269627
-36.64538776556475
-36.66681369904462
-36.60090652408883
-36.45658674896406
-36.24595377408701
-35.98068208986962
-35.66917569233564
-35.31525637517114
-34.91863760635147
-34.4768501278796
-33.98792261983432
-33.45300329308321
-32.8781638935912
-32.27488974245049
-31.65919159304771
-31.04964752596466
-30.46483489383637
-29.92064288879111
-29.42802302474314
-28.99178647050924
-28.61088177175042
-28.28012722609527
-27.99287425599531
-27.74380796860264
-27.53106727228822
-27.35702739134918
-27.22747085424124
-27.14941162802874
-27.12824066093681
-27.1649301001581
-27.25389184568295
-27.38196463607592
-27.52892185855226
-27.66966311407348
-27.77779696648832
-27.82985253179763
-27.80913173920373
-27.70826089886991
-27.52976283961144
-27.28448006782312
-26.98833762606847
-26.65839603268334
-26.30917073056547
-25.94992963979932
-25.5834192361106
-25.20628714037159
-24.81119971450108
-24.39020436834611
-23.93844609042621
-23.45716809685055
-22.95505184434953
-22.44733744820873
-21.9528192497855
-21.48956200322728
-21.07060390266927
-20.70075850210051
-20.37513455346301
-20.07956355789534
-19.79287832419029
-19.49073618407594
-19.15029832169322
-18.75472687278543
-18.29638790486461
-17.77789193947526
-17.21061378453923
-16.61109162098841
-15.99647649101346
-15.38049949522242
-14.77102954198951
-14.16957147276731
-13.57251871303323
-12.97375837315487
-12.36808558162369
-11.7546362479258
-11.13934490392242
-10.53552119914351
-9.96204051772142
-9.439276424124989
-8.983698521112805
-8.602727985967856
-8.291477504065975
-8.032265876040329
-7.796808147587429
-7.550366964291235
-7.25702101097201
-6.885217178641889
-6.412674968596601
-5.829644906848888
-5.139727391982349
-4.357946537851042
-3.506456883735832
-2.609059776774277
-1.686282652992622
-0.752593134661524
0.1836767267275013
1.118251321063789
2.047773109706954
2.966601911897715
3.864283414298991
4.724300441262305
5.524624101401796
6.24029521213634
6.847797144495694
7.33040688736463
7.683108933236178
7.915369887300985
8.050583596849908
8.122239752863443
8.168048811465926
8.223647663477426
8.317174377896405
8.465520411051505
8.672793626252332
8.931313817360078
9.225084117993488
9.53514395657566
9.845626697950138
10.14885916698498
10.44780664809808
10.75496501220033
11.08819794684644
11.46512916085053
11.8978673272935
12.38926431475723
12.93125177052104
13.5054321821147
14.08588588565486
14.64385948398922
15.15357955616022
15.59795875767646
15.97259404606276
16.28659024278958
16.55970487346321
16.81675034547866
17.08117214610952
17.36967126416393
17.68897583245324
18.03508994922576
18.39489157092103
18.7496939031552
19.08012666066824
19.37138410952648
19.61757546845727
19.82376785173238
20.00468131143841
20.18008259941686
20.3682819023105
20.57987550308768
20.81356311018064
21.05492674073593
21.27818568234106
21.45042341005258
21.53749027280126
21.51055951581655
21.35211730805288
21.0600337824144
20.64844013869983
20.14472081023755
19.5831206829961
18.99675688355529
18.41037308063245
17.83566028365081
17.2698994836083
16.6977678873298
16.09564629840284
15.43751915062706
14.70140238194247
13.87511945075527
12.96018748546176
11.97270328813088
10.94069790674204
9.898531498087774
8.880036111877267
7.912515187452813
7.013121071106681
6.188075935630036
5.434362842768661
4.743128045649814
4.103938826765456
3.509035892127587
2.956724771026151
2.453068168856164
2.011184065577765
1.647950224155755
1.37882366482889
1.212372754701875
1.146327647630877
1.166296973024189
1.247282689609669
1.357375339590366
1.462718230065014
1.532818432409144
1.545360032720014
1.489752164183907
1.368708537427135
1.19730514554137
0.9994110328998067
0.8021933894365308
0.6301763182005595
0.500497214912316
0.4204128963082418
0.3872246555782507
0.3901592798345134
0.4135092595257006
0.4403374181719038
0.4561162114755883
0.4517197539003822
0.4251954825023788
0.3817908688301208
0.3320069848021471
0.2880962029281294
0.2601077608603044
0.2527852579415828
0.2641713220801682
0.2860536642193769
0.3058572876149995
0.3093881248828627
0.2838417288445073
0.2205679988925851
0.1171513259383266
-0.02161400922285468
-0.1842430847782045
-0.3547290348423819
-0.5159634374278282
-0.6534096055078145
-0.7578702502235214
-0.8266288163757995
-0.8629238456443559
-0.8742029522363032
-0.8697689546143084
-0.8583800341626437
-0.8462227095261063
-0.8355390458650114
-0.8241370617064313
-0.8060128550694832
-0.7731684457126408
-0.7182861779476118
-0.6374411962479257
-0.5319237887795896
-0.4086272034486167
-0.2790213161170332
-0.1571228748167457
-0.05699976670631708
0.009699288172242058
0.03581691428756462
0.02009673744142215
-0.0323002878165234
-0.1104064235623405
-0.1992812713707742
-0.2827752269915638
-0.346481687652404
-0.3800119653303212
-0.3780382062909595
-0.340034384770751
-0.2689958601609621
-0.1695513919632344
-0.04587682421820515
0.1002329769825329
0.2708135876770233
0.472362684595714
0.715293468827794
1.012006418700418
1.373833661166429
1.807666674626736
2.313311890485763
2.882345914112954
3.498704372204237
4.140790408349635
4.784665074770841
5.407808654133079
5.992911014749987
6.53110026621592
7.023949763477027
7.483605363891466
7.930636897558174
8.389843564461913
8.884997800529385
9.433917296081862
10.04505711146298
10.7162352302232
11.43554141860744
12.18410893029717
12.94020212846271
13.68391591973943
14.40166466844446
15.08954598526373
15.75466192778759
16.4137587928525
17.08923866664773
17.8034777008569
18.57295176673969
19.40361484939238
20.28847312942773
21.20771922090878
22.13132214384617
23.02360261963873
23.84903917880798
24.57834126932339
25.19366739839198
25.69181307399021
26.08444463565011
26.39515820028934
26.65409121749719
26.89151128141986
27.13192438021996
27.38988704894468
27.668179640573
27.95849684247749
28.2443956629853
28.50591649969173
28.72502113968241
28.8907342828849
29.00272350373836
29.07224684787636
29.12008596059682
29.17203946016192
29.25327693044992
29.38302774085796
29.57078743092151
29.81473437086024
30.10254463690613
30.41435956687324
30.72732878715526
31.02088138748041
31.28162406670496
31.50662162109922
31.70402228311659
31.89068649608023
32.08743047689327
32.31321427528595
32.57977966169761
32.88795891691106
33.22637795816157
33.57274418789036
33.89744922459412
34.16887435147824
34.359505947587
34.451690507694
34.44169228848008
34.34091670173257
34.17386191925173
33.97332233506184
33.77411528645131
33.60684105735586
33.49297641043392
33.44215169206409
33.45193798120722
33.51000263264847
33.59814346479953
33.69742771748943
33.79336959021379
33.87987258067857
33.96079105116333
34.04857939799483
34.16039652983329
34.31277792488505
34.5162841973792
34.77140604261689
35.06660892937443
35.37888172259144
35.67665571978712
